0.000000	-12	-6	-6	7	
0.000500	-13	-6	-5	3	
0.001000	-15	-5	-4	-1	
0.001500	-16	-4	-4	-4	
0.002000	-18	-4	-3	-6	
0.002500	-18	-3	-1	-8	
0.003000	-18	-3	0	-10	
0.003500	-18	-2	2	-11	
0.004000	-19	-2	3	-13	
0.004500	-20	-2	4	-14	
0.005000	-21	-2	5	-16	
0.005500	-22	-1	7	-18	
0.006000	-21	-1	9	-21	
0.006500	-22	-1	10	-23	
0.007000	-21	-2	9	-26	
0.007500	-21	-2	8	-27	
0.008000	-21	-2	8	-27	
0.008500	-19	-3	7	-25	
0.009000	-19	-4	6	-20	
0.009500	-18	-4	5	-16	
0.010000	-17	-4	4	-11	
0.010500	-16	-5	2	-8	
0.011000	-14	-6	0	-5	
0.011500	-13	-7	-1	-2	
0.012000	-13	-6	-1	1	
0.012500	-13	-5	0	3	
0.013000	-14	-4	1	3	
0.013500	-14	-3	0	3	
0.014000	-14	-4	-1	4	
0.014500	-14	-4	-2	8	
0.015000	-13	-4	-3	13	
0.015500	-12	-4	-4	16	
0.016000	-12	-5	-3	18	
0.016500	-12	-6	0	18	
0.017000	-12	-7	4	17	
0.017500	-13	-6	8	16	
0.018000	-14	-6	11	15	
0.018500	-15	-5	14	14	
0.019000	-16	-4	15	12	
0.019500	-17	-5	16	8	
0.020000	-18	-6	16	3	
0.020500	-19	-6	13	-4	
0.021000	-19	-6	8	-11	
0.021500	-19	-4	-1	-22	
0.022000	-20	-3	-10	-31	
0.022500	-21	-2	-18	-36	
0.023000	-22	-1	-21	-38	
0.023500	-21	0	-20	-35	
0.024000	-22	0	-17	-32	
0.024500	-22	-2	-9	-28	
0.025000	-21	-3	2	-23	
0.025500	-19	-3	16	-20	
0.026000	-18	-4	27	-17	
0.026500	-16	-3	34	-15	
0.027000	-15	-5	34	-13	
0.027500	-14	-5	31	-11	
0.028000	-15	-5	23	-8	
0.028500	-14	-5	14	-4	
0.029000	-14	-5	2	-1	
0.029500	-13	-4	-9	2	
0.030000	-13	-3	-17	5	
0.030500	-12	-2	-24	8	
0.031000	-11	-3	-27	9	
0.031500	-11	-3	-30	10	
0.032000	-11	-2	-29	11	
0.032500	-12	0	-24	11	
0.033000	-13	1	-10	9	
0.033500	-14	2	4	5	
0.034000	-16	1	18	0	
0.034500	-16	0	28	-5	
0.035000	-18	-1	34	-9	
0.035500	-18	-2	33	-11	
0.036000	-18	-2	28	-13	
0.036500	-18	-3	17	-15	
0.037000	-18	-4	4	-17	
0.037500	-18	-3	-10	-20	
0.038000	-17	-4	-23	-22	
0.038500	-18	-5	-32	-24	
0.039000	-18	-6	-36	-26	
0.039500	-19	-5	-34	-27	
0.040000	-20	-3	-28	-26	
0.040500	-20	-3	-19	-24	
0.041000	-21	-3	-11	-22	
0.041500	-20	-4	-6	-21	
0.042000	-19	-4	-4	-20	
0.042500	-18	-3	-3	-19	
0.043000	-17	-3	-1	-17	
0.043500	-16	-4	1	-12	
0.044000	-15	-5	4	-4	
0.044500	-15	-4	7	4	
0.045000	-15	-3	9	13	
0.045500	-15	-2	9	18	
0.046000	-14	0	7	22	
0.046500	-14	1	4	24	
0.047000	-13	1	1	24	
0.047500	-12	1	-1	24	
0.048000	-11	-1	-5	23	
0.048500	-11	-3	-8	22	
0.049000	-11	-4	-7	20	
0.049500	-11	-5	-8	19	
0.050000	-12	-6	-9	17	
0.050500	-13	-6	-9	14	
0.051000	-14	-5	-8	12	
0.051500	-15	-5	-6	8	
0.052000	-16	-4	-3	6	
0.052500	-16	-3	-1	3	
0.053000	-17	-4	1	2	
0.053500	-18	-4	2	0	
0.054000	-19	-4	3	-1	
0.054500	-19	-4	4	-3	
0.055000	-19	-3	5	-3	
0.055500	-19	-3	6	-3	
0.056000	-18	-2	7	-2	
0.056500	-18	-2	8	0	
0.057000	-17	-3	9	2	
0.057500	-17	-4	10	5	
0.058000	-17	-4	11	8	
0.058500	-16	-5	12	9	
0.059000	-16	-6	14	9	
0.059500	-15	-6	12	9	
0.060000	-15	-5	11	7	
0.060500	-14	-5	8	5	
0.061000	-13	-5	3	3	
0.061500	-14	-5	-7	-3	
0.062000	-14	-5	-16	-8	
0.062500	-14	-5	-24	-9	
0.063000	-15	-6	-25	-7	
0.063500	-14	-6	-22	-1	
0.064000	-14	-6	-18	5	
0.064500	-12	-6	-15	10	
0.065000	-12	-6	-13	14	
0.065500	-12	-5	-11	16	
0.066000	-12	-4	-9	16	
0.066500	-13	-4	-7	13	
0.067000	-14	-4	-4	10	
0.067500	-15	-3	-1	4	
0.068000	-15	-4	2	1	
0.068500	-15	-3	4	-3	
0.069000	-16	-3	6	-9	
0.069500	-16	-3	6	-17	
0.070000	-17	-2	6	-30	
0.070500	-18	-1	0	-41	
0.071000	-19	-1	-5	-51	
0.071500	-20	-1	-9	-56	
0.072000	-21	-1	-9	-56	
0.072500	-21	-2	-7	-53	
0.073000	-22	-2	-2	-50	
0.073500	-23	-3	2	-44	
0.074000	-22	-4	3	-39	
0.074500	-21	-4	4	-36	
0.075000	-21	-3	3	-33	
0.075500	-21	-3	3	-31	
0.076000	-19	-3	3	-27	
0.076500	-17	-3	2	-21	
0.077000	-16	-3	1	-16	
0.077500	-15	-3	0	-9	
0.078000	-14	-3	-2	-2	
0.078500	-13	-3	-3	3	
0.079000	-13	-3	-4	8	
0.079500	-13	-3	-5	14	
0.080000	-12	-2	-6	19	
0.080500	-11	-2	-6	23	
0.081000	-11	-3	-6	26	
0.081500	-11	-4	-7	32	
0.082000	-12	-4	-6	36	
0.082500	-13	-3	-6	39	
0.083000	-13	-3	-5	38	
0.083500	-14	-2	-4	34	
0.084000	-15	-2	-2	29	
0.084500	-15	-2	1	23	
0.085000	-15	-2	4	16	
0.085500	-15	-2	6	10	
0.086000	-16	-2	6	4	
0.086500	-17	-2	6	-1	
0.087000	-18	-2	6	-6	
0.087500	-18	-2	5	-10	
0.088000	-17	-2	4	-14	
0.088500	-18	-3	3	-17	
0.089000	-18	-3	1	-19	
0.089500	-18	-3	0	-21	
0.090000	-19	-3	0	-21	
0.090500	-20	-3	0	-20	
0.091000	-19	-3	0	-18	
0.091500	-19	-3	-1	-16	
0.092000	-18	-3	-3	-14	
0.092500	-18	-3	-4	-11	
0.093000	-16	-3	-3	-8	
0.093500	-15	-3	-1	-6	
0.094000	-15	-3	1	-2	
0.094500	-14	-4	1	0	
0.095000	-13	-5	1	1	
0.095500	-13	-5	0	1	
0.096000	-13	-5	-1	2	
0.096500	-12	-5	-2	1	
0.097000	-12	-5	-3	1	
0.097500	-12	-5	-3	2	
0.098000	-12	-6	-6	4	
0.098500	-11	-6	-7	4	
0.099000	-11	-6	-9	4	
0.099500	-11	-7	-10	4	
0.100000	-11	-7	-11	1	
0.100500	-11	-6	-9	-3	
0.101000	-11	-6	-3	-6	
0.101500	-14	-6	8	-9	
0.102000	-17	-5	20	-11	
0.102500	-18	-4	33	-15	
0.103000	-19	-3	42	-18	
0.103500	-20	-3	46	-21	
0.104000	-19	-4	44	-20	
0.104500	-19	-4	38	-19	
0.105000	-19	-5	30	-19	
0.105500	-20	-7	18	-21	
0.106000	-20	-8	8	-22	
0.106500	-19	-7	-1	-22	
0.107000	-19	-7	-8	-21	
0.107500	-18	-7	-13	-18	
0.108000	-18	-5	-17	-15	
0.108500	-19	-2	-18	-12	
0.109000	-19	-1	-17	-7	
0.109500	-18	-2	-17	-3	
0.110000	-17	-3	-18	2	
0.110500	-17	-4	-16	4	
0.111000	-16	-4	-13	7	
0.111500	-16	-5	-8	8	
0.112000	-15	-4	-4	8	
0.112500	-15	-3	0	9	
0.113000	-15	-4	1	10	
0.113500	-14	-4	1	11	
0.114000	-13	-4	1	13	
0.114500	-13	-4	-1	14	
0.115000	-12	-4	-3	16	
0.115500	-12	-5	-5	16	
0.116000	-12	-5	-7	16	
0.116500	-11	-5	-8	12	
0.117000	-12	-4	-8	7	
0.117500	-13	-4	-7	3	
0.118000	-15	-3	-5	-2	
0.118500	-17	-3	-4	-6	
0.119000	-17	-3	-2	-11	
0.119500	-16	-5	-1	-16	
0.120000	-16	-5	-2	-21	
0.120500	-17	-5	0	-24	
0.121000	-18	-5	2	-26	
0.121500	-18	-4	4	-27	
0.122000	-20	-3	6	-28	
0.122500	-20	-3	8	-27	
0.123000	-20	-3	8	-25	
0.123500	-19	-3	9	-23	
0.124000	-18	-3	8	-20	
0.124500	-17	-5	7	-17	
0.125000	-17	-5	7	-13	
0.125500	-17	-4	7	-10	
0.126000	-16	-4	8	-5	
0.126500	-16	-3	9	-1	
0.127000	-15	-3	10	3	
0.127500	-15	-4	9	8	
0.128000	-14	-5	9	13	
0.128500	-14	-7	8	18	
0.129000	-13	-7	7	22	
0.129500	-12	-6	5	23	
0.130000	-12	-3	5	23	
0.130500	-13	-1	4	21	
0.131000	-13	-1	-1	17	
0.131500	-13	0	-13	9	
0.132000	-12	-1	-27	2	
0.132500	-12	-1	-37	-4	
0.133000	-12	-2	-37	-8	
0.133500	-13	-2	-32	-8	
0.134000	-15	-1	-21	-10	
0.134500	-17	0	-11	-10	
0.135000	-18	0	-3	-9	
0.135500	-20	0	2	-8	
0.136000	-20	0	4	-9	
0.136500	-20	-1	4	-9	
0.137000	-19	-2	4	-9	
0.137500	-19	-3	4	-9	
0.138000	-20	-3	4	-8	
0.138500	-20	-3	4	-8	
0.139000	-20	-2	3	-6	
0.139500	-19	-1	3	-5	
0.140000	-19	0	4	-3	
0.140500	-18	0	4	-3	
0.141000	-17	0	2	-3	
0.141500	-16	-1	1	-3	
0.142000	-17	-2	0	-3	
0.142500	-15	-3	-1	-3	
0.143000	-15	-4	-2	-2	
0.143500	-15	-5	-3	-1	
0.144000	-15	-5	-3	1	
0.144500	-14	-4	-4	3	
0.145000	-13	-4	-4	4	
0.145500	-13	-4	-4	5	
0.146000	-13	-4	-5	6	
0.146500	-13	-5	-6	6	
0.147000	-14	-6	-7	6	
0.147500	-14	-6	-7	6	
0.148000	-13	-5	-7	8	
0.148500	-13	-6	-8	9	
0.149000	-13	-6	-9	11	
0.149500	-12	-6	-9	11	
0.150000	-12	-6	-7	11	
0.150500	-13	-5	-2	7	
0.151000	-14	-5	3	3	
0.151500	-15	-5	6	-2	
0.152000	-17	-6	7	-7	
0.152500	-17	-5	8	-12	
0.153000	-18	-4	8	-16	
0.153500	-19	-3	9	-20	
0.154000	-20	-3	11	-23	
0.154500	-20	-2	12	-25	
0.155000	-20	-2	13	-25	
0.155500	-20	-1	12	-24	
0.156000	-21	-1	10	-22	
0.156500	-21	-1	8	-22	
0.157000	-21	-1	7	-22	
0.157500	-21	-1	6	-22	
0.158000	-20	-1	5	-19	
0.158500	-20	-2	4	-16	
0.159000	-20	-3	3	-10	
0.159500	-20	-2	-1	-5	
0.160000	-19	-2	-4	0	
0.160500	-17	-4	-7	4	
0.161000	-16	-3	-8	7	
0.161500	-15	-4	-7	9	
0.162000	-15	-5	-6	10	
0.162500	-14	-5	-5	8	
0.163000	-14	-5	-5	7	
0.163500	-14	-5	-6	8	
0.164000	-13	-5	-7	11	
0.164500	-12	-5	-8	13	
0.165000	-11	-4	-9	18	
0.165500	-11	-4	-10	21	
0.166000	-11	-5	-9	23	
0.166500	-12	-5	-8	22	
0.167000	-13	-4	-8	19	
0.167500	-14	-5	-5	15	
0.168000	-15	-5	-3	10	
0.168500	-16	-5	-1	5	
0.169000	-17	-5	1	1	
0.169500	-17	-6	2	-2	
0.170000	-18	-5	3	-4	
0.170500	-18	-5	4	-5	
0.171000	-19	-3	4	-6	
0.171500	-19	-4	5	-8	
0.172000	-20	-4	6	-10	
0.172500	-20	-3	7	-12	
0.173000	-20	-3	7	-15	
0.173500	-19	-4	8	-17	
0.174000	-19	-4	7	-19	
0.174500	-18	-5	5	-19	
0.175000	-18	-5	5	-20	
0.175500	-17	-5	4	-20	
0.176000	-16	-5	3	-19	
0.176500	-16	-5	1	-18	
0.177000	-15	-6	0	-16	
0.177500	-14	-6	-2	-16	
0.178000	-14	-6	-4	-14	
0.178500	-14	-6	-5	-11	
0.179000	-14	-5	-5	-7	
0.179500	-14	-5	-5	-3	
0.180000	-15	-5	-5	1	
0.180500	-14	-6	-5	4	
0.181000	-13	-6	-5	8	
0.181500	-12	-5	-6	13	
0.182000	-12	-5	-7	17	
0.182500	-13	-5	-7	19	
0.183000	-13	-5	-7	20	
0.183500	-14	-6	-6	21	
0.184000	-16	-6	-4	22	
0.184500	-18	-5	-1	21	
0.185000	-18	-3	3	20	
0.185500	-18	-3	5	18	
0.186000	-18	-2	9	16	
0.186500	-19	-3	12	14	
0.187000	-18	-3	14	12	
0.187500	-19	-4	15	9	
0.188000	-20	-4	17	6	
0.188500	-20	-5	17	2	
0.189000	-20	-5	16	-6	
0.189500	-20	-6	12	-14	
0.190000	-20	-7	4	-26	
0.190500	-20	-7	-8	-36	
0.191000	-21	-6	-18	-41	
0.191500	-20	-6	-24	-40	
0.192000	-19	-5	-25	-35	
0.192500	-18	-4	-26	-29	
0.193000	-16	-3	-25	-23	
0.193500	-16	-2	-24	-18	
0.194000	-15	-1	-22	-15	
0.194500	-15	-1	-20	-13	
0.195000	-15	-1	-17	-12	
0.195500	-15	-2	-13	-11	
0.196000	-15	-3	-11	-11	
0.196500	-14	-4	-9	-12	
0.197000	-14	-5	-8	-11	
0.197500	-13	-7	-7	-10	
0.198000	-12	-9	-6	-7	
0.198500	-12	-9	-3	-4	
0.199000	-11	-10	0	-2	
0.199500	-11	-11	2	-1	
0.200000	-11	-12	4	-2	
0.200500	-13	-11	4	-5	
0.201000	-15	-11	5	-8	
0.201500	-17	-10	7	-10	
0.202000	-17	-9	8	-11	
0.202500	-19	-7	12	-14	
0.203000	-19	-6	18	-17	
0.203500	-21	-4	26	-20	
0.204000	-22	-3	36	-22	
0.204500	-23	-2	44	-23	
0.205000	-22	-2	49	-22	
0.205500	-23	-3	50	-19	
0.206000	-23	-3	47	-15	
0.206500	-23	-2	40	-7	
0.207000	-22	-1	30	1	
0.207500	-20	-1	19	9	
0.208000	-18	0	6	16	
0.208500	-16	0	-5	21	
0.209000	-15	-1	-14	24	
0.209500	-14	-1	-19	25	
0.210000	-14	-2	-22	26	
0.210500	-14	-1	-23	27	
0.211000	-14	0	-24	28	
0.211500	-14	1	-24	30	
0.212000	-13	0	-23	30	
0.212500	-14	-1	-22	29	
0.213000	-15	-2	-17	28	
0.213500	-14	-2	-13	26	
0.214000	-14	-2	-8	24	
0.214500	-13	-1	-6	21	
0.215000	-12	-1	-5	19	
0.215500	-13	-1	-5	16	
0.216000	-13	-1	-5	15	
0.216500	-14	-2	-5	13	
0.217000	-15	-2	-4	9	
0.217500	-15	-2	-2	4	
0.218000	-15	-3	-2	-2	
0.218500	-15	-3	-3	-7	
0.219000	-15	-3	-2	-11	
0.219500	-17	-3	-2	-14	
0.220000	-18	-3	-2	-17	
0.220500	-19	-3	0	-19	
0.221000	-20	-2	0	-22	
0.221500	-20	-2	0	-23	
0.222000	-22	-2	-1	-26	
0.222500	-23	-2	0	-26	
0.223000	-23	-1	1	-27	
0.223500	-22	-2	2	-27	
0.224000	-20	-2	2	-28	
0.224500	-19	-3	1	-28	
0.225000	-17	-4	-1	-28	
0.225500	-15	-5	-2	-25	
0.226000	-16	-5	-2	-21	
0.226500	-16	-5	1	-15	
0.227000	-17	-4	2	-11	
0.227500	-17	-3	3	-8	
0.228000	-16	-3	2	-5	
0.228500	-16	-5	2	-3	
0.229000	-16	-5	1	-2	
0.229500	-15	-6	-1	1	
0.230000	-13	-6	-2	3	
0.230500	-13	-7	-4	5	
0.231000	-13	-7	-5	7	
0.231500	-12	-8	-7	8	
0.232000	-12	-8	-8	8	
0.232500	-13	-9	-9	10	
0.233000	-13	-9	-8	9	
0.233500	-14	-9	-7	6	
0.234000	-15	-9	-7	2	
0.234500	-15	-9	-7	-1	
0.235000	-16	-8	-4	-5	
0.235500	-17	-7	-3	-8	
0.236000	-18	-7	-2	-11	
0.236500	-19	-6	-1	-12	
0.237000	-19	-4	0	-12	
0.237500	-20	-3	1	-12	
0.238000	-20	-3	3	-11	
0.238500	-20	-2	3	-9	
0.239000	-20	-1	3	-7	
0.239500	-21	0	2	-6	
0.240000	-20	0	1	-6	
0.240500	-19	0	1	-5	
0.241000	-19	-1	1	-3	
0.241500	-19	-2	3	-1	
0.242000	-17	-2	5	2	
0.242500	-17	-1	8	4	
0.243000	-16	0	9	7	
0.243500	-16	0	9	10	
0.244000	-16	-2	8	14	
0.244500	-15	-2	6	17	
0.245000	-15	-4	5	20	
0.245500	-15	-4	5	21	
0.246000	-14	-5	5	21	
0.246500	-13	-5	6	20	
0.247000	-12	-6	6	18	
0.247500	-12	-6	7	16	
0.248000	-11	-6	5	14	
0.248500	-11	-6	4	12	
0.249000	-11	-5	3	6	
0.249500	-11	-4	-3	-2	
0.250000	-13	-4	-11	-13	
0.250500	-15	-4	-20	-23	
0.251000	-16	-3	-26	-30	
0.251500	-17	-2	-25	-30	
0.252000	-17	-2	-19	-27	
0.252500	-19	-2	-12	-22	
0.253000	-19	-2	-6	-21	
0.253500	-20	-3	-2	-21	
0.254000	-20	-3	-1	-25	
0.254500	-21	-3	1	-29	
0.255000	-21	-2	3	-32	
0.255500	-20	-1	4	-34	
0.256000	-21	-1	4	-34	
0.256500	-20	-1	5	-33	
0.257000	-21	-2	5	-29	
0.257500	-20	-2	4	-22	
0.258000	-20	-2	3	-16	
0.258500	-20	-3	2	-10	
0.259000	-19	-4	1	-6	
0.259500	-18	-4	0	-3	
0.260000	-17	-5	-1	1	
0.260500	-16	-6	-3	4	
0.261000	-16	-6	-4	8	
0.261500	-16	-6	-4	9	
0.262000	-15	-5	-5	10	
0.262500	-16	-4	-6	9	
0.263000	-15	-4	-8	9	
0.263500	-13	-4	-9	8	
0.264000	-12	-5	-11	6	
0.264500	-11	-5	-10	2	
0.265000	-11	-5	-11	-1	
0.265500	-11	-5	-10	-3	
0.266000	-12	-5	-9	-2	
0.266500	-13	-4	-9	0	
0.267000	-13	-3	-8	1	
0.267500	-14	-4	-6	0	
0.268000	-15	-4	-4	-3	
0.268500	-16	-5	-2	-6	
0.269000	-17	-6	0	-9	
0.269500	-16	-6	2	-12	
0.270000	-17	-5	4	-15	
0.270500	-18	-5	5	-17	
0.271000	-19	-6	6	-20	
0.271500	-19	-5	6	-24	
0.272000	-19	-4	7	-28	
0.272500	-20	-3	9	-28	
0.273000	-22	-1	10	-25	
0.273500	-22	-1	11	-21	
0.274000	-21	-1	11	-17	
0.274500	-20	-2	11	-15	
0.275000	-20	-2	10	-15	
0.275500	-19	-3	6	-13	
0.276000	-18	-4	5	-8	
0.276500	-17	-3	4	0	
0.277000	-16	-4	3	8	
0.277500	-15	-3	2	19	
0.278000	-15	-3	2	28	
0.278500	-16	-3	2	32	
0.279000	-16	-3	2	34	
0.279500	-15	-2	2	34	
0.280000	-15	-2	2	34	
0.280500	-14	-3	3	34	
0.281000	-13	-3	2	35	
0.281500	-13	-4	1	36	
0.282000	-12	-4	1	36	
0.282500	-12	-3	1	33	
0.283000	-12	-4	2	28	
0.283500	-12	-5	4	21	
0.284000	-13	-5	5	10	
0.284500	-14	-4	7	0	
0.285000	-15	-4	6	-13	
0.285500	-16	-3	3	-25	
0.286000	-18	-3	-3	-37	
0.286500	-19	-3	-9	-43	
0.287000	-20	-4	-12	-44	
0.287500	-20	-4	-13	-41	
0.288000	-20	-4	-10	-35	
0.288500	-20	-5	-7	-30	
0.289000	-19	-6	-5	-25	
0.289500	-19	-6	-2	-22	
0.290000	-18	-5	-1	-19	
0.290500	-17	-4	0	-16	
0.291000	-17	-4	0	-14	
0.291500	-17	-3	0	-11	
0.292000	-18	-3	0	-9	
0.292500	-17	-3	0	-8	
0.293000	-16	-4	-1	-8	
0.293500	-15	-5	-1	-6	
0.294000	-14	-4	-3	-5	
0.294500	-14	-4	-6	-4	
0.295000	-13	-3	-7	-1	
0.295500	-13	-4	-9	1	
0.296000	-13	-5	-9	2	
0.296500	-13	-6	-8	4	
0.297000	-13	-6	-5	7	
0.297500	-13	-5	-1	12	
0.298000	-12	-4	1	15	
0.298500	-12	-4	2	17	
0.299000	-13	-4	2	15	
0.299500	-12	-3	2	12	
0.300000	-13	-2	3	8	
0.300500	-14	-2	10	3	
0.301000	-16	-2	18	-3	
0.301500	-18	-1	26	-7	
0.302000	-18	-1	29	-9	
0.302500	-19	-1	28	-9	
0.303000	-19	-2	23	-8	
0.303500	-19	-2	16	-6	
0.304000	-19	-3	5	-5	
0.304500	-19	-2	-4	-5	
0.305000	-18	-2	-12	-4	
0.305500	-18	-2	-15	-3	
0.306000	-19	-1	-14	-2	
0.306500	-19	-1	-11	-4	
0.307000	-18	-1	-8	-7	
0.307500	-18	-1	-6	-10	
0.308000	-17	-2	-4	-12	
0.308500	-17	-2	-4	-12	
0.309000	-17	-2	-3	-11	
0.309500	-16	-3	-2	-8	
0.310000	-15	-4	-2	-5	
0.310500	-14	-4	1	-1	
0.311000	-14	-4	4	2	
0.311500	-13	-3	8	5	
0.312000	-14	-3	10	8	
0.312500	-14	-2	11	12	
0.313000	-14	-3	9	14	
0.313500	-14	-2	6	15	
0.314000	-13	-2	3	15	
0.314500	-12	-3	0	14	
0.315000	-11	-3	-3	14	
0.315500	-11	-4	-4	14	
0.316000	-12	-4	-5	13	
0.316500	-13	-3	-5	12	
0.317000	-14	-3	-3	10	
0.317500	-15	-2	-1	6	
0.318000	-16	-3	1	2	
0.318500	-17	-4	3	-1	
0.319000	-17	-5	5	-4	
0.319500	-17	-5	8	-5	
0.320000	-17	-6	12	-6	
0.320500	-18	-7	14	-6	
0.321000	-18	-7	17	-7	
0.321500	-19	-6	19	-11	
0.322000	-19	-6	20	-14	
0.322500	-19	-5	21	-18	
0.323000	-19	-6	21	-22	
0.323500	-19	-5	19	-27	
0.324000	-19	-5	11	-37	
0.324500	-18	-5	0	-44	
0.325000	-19	-4	-11	-51	
0.325500	-20	-4	-17	-52	
0.326000	-20	-5	-19	-49	
0.326500	-20	-4	-16	-41	
0.327000	-19	-5	-12	-33	
0.327500	-18	-5	-8	-25	
0.328000	-18	-6	-7	-17	
0.328500	-17	-6	-6	-11	
0.329000	-16	-5	-6	-5	
0.329500	-16	-5	-7	-2	
0.330000	-16	-4	-8	1	
0.330500	-16	-4	-9	4	
0.331000	-15	-5	-11	8	
0.331500	-14	-5	-12	12	
0.332000	-15	-6	-13	15	
0.332500	-14	-5	-13	17	
0.333000	-14	-5	-14	19	
0.333500	-15	-3	-12	19	
0.334000	-17	-2	-10	19	
0.334500	-18	-1	-5	18	
0.335000	-18	0	-1	14	
0.335500	-18	0	2	9	
0.336000	-18	0	3	3	
0.336500	-18	-1	4	-6	
0.337000	-19	-2	5	-13	
0.337500	-20	-3	6	-20	
0.338000	-21	-5	7	-24	
0.338500	-21	-5	8	-25	
0.339000	-22	-5	8	-22	
0.339500	-21	-4	9	-19	
0.340000	-21	-4	9	-15	
0.340500	-21	-4	8	-13	
0.341000	-19	-3	7	-10	
0.341500	-18	-4	6	-9	
0.342000	-19	-3	5	-9	
0.342500	-18	-4	4	-7	
0.343000	-17	-3	2	-5	
0.343500	-17	-4	2	-5	
0.344000	-17	-4	2	-2	
0.344500	-17	-3	3	0	
0.345000	-17	-3	2	3	
0.345500	-16	-3	2	4	
0.346000	-16	-3	1	5	
0.346500	-15	-2	0	8	
0.347000	-14	-3	-1	10	
0.347500	-13	-3	-1	12	
0.348000	-13	-3	-3	13	
0.348500	-13	-3	-5	13	
0.349000	-13	-3	-5	12	
0.349500	-13	-2	-6	12	
0.350000	-14	-2	-6	11	
0.350500	-15	-2	-6	10	
0.351000	-15	-2	-4	8	
0.351500	-15	-2	-2	4	
0.352000	-16	-2	-1	0	
0.352500	-17	-2	0	-4	
0.353000	-18	-3	-1	-9	
0.353500	-18	-3	-1	-11	
0.354000	-19	-3	-1	-15	
0.354500	-18	-3	1	-18	
0.355000	-19	-4	1	-21	
0.355500	-19	-4	2	-24	
0.356000	-19	-4	2	-27	
0.356500	-20	-4	3	-29	
0.357000	-20	-4	4	-30	
0.357500	-20	-5	4	-31	
0.358000	-20	-5	4	-32	
0.358500	-18	-6	4	-33	
0.359000	-17	-8	3	-31	
0.359500	-17	-8	2	-28	
0.360000	-16	-9	1	-25	
0.360500	-15	-9	-1	-19	
0.361000	-13	-10	-4	-12	
0.361500	-12	-9	-6	-7	
0.362000	-12	-9	-8	-4	
0.362500	-12	-8	-9	-1	
0.363000	-14	-5	-8	2	
0.363500	-14	-3	-7	6	
0.364000	-14	-2	-8	10	
0.364500	-13	-2	-8	16	
0.365000	-12	-3	-9	24	
0.365500	-12	-3	-7	30	
0.366000	-13	-3	-4	36	
0.366500	-14	-2	-1	38	
0.367000	-15	-1	-1	37	
0.367500	-16	0	-3	34	
0.368000	-16	-1	-4	28	
0.368500	-17	-1	-5	20	
0.369000	-16	-2	-5	13	
0.369500	-16	-2	-4	6	
0.370000	-16	-2	-3	0	
0.370500	-17	-2	-1	-6	
0.371000	-18	-1	0	-10	
0.371500	-18	-1	2	-14	
0.372000	-18	-2	3	-17	
0.372500	-19	-3	3	-18	
0.373000	-20	-4	3	-19	
0.373500	-20	-5	4	-18	
0.374000	-20	-5	5	-17	
0.374500	-20	-5	6	-15	
0.375000	-19	-5	6	-14	
0.375500	-19	-5	7	-11	
0.376000	-18	-6	8	-8	
0.376500	-17	-6	7	-5	
0.377000	-15	-6	5	-3	
0.377500	-14	-6	3	0	
0.378000	-14	-5	0	2	
0.378500	-14	-5	-3	4	
0.379000	-13	-4	-5	5	
0.379500	-13	-4	-8	7	
0.380000	-13	-5	-10	7	
0.380500	-13	-5	-9	7	
0.381000	-14	-5	-8	7	
0.381500	-14	-4	-6	7	
0.382000	-14	-5	-7	5	
0.382500	-13	-5	-9	2	
0.383000	-13	-6	-10	-2	
0.383500	-14	-5	-10	-6	
0.384000	-15	-5	-7	-10	
0.384500	-15	-4	-4	-14	
0.385000	-16	-4	-2	-19	
0.385500	-18	-4	1	-22	
0.386000	-19	-4	3	-27	
0.386500	-19	-3	4	-29	
0.387000	-20	-2	4	-29	
0.387500	-21	-3	6	-24	
0.388000	-21	-2	7	-20	
0.388500	-21	-2	8	-16	
0.389000	-21	-2	9	-13	
0.389500	-21	-2	8	-11	
0.390000	-20	-2	7	-9	
0.390500	-20	-2	5	-7	
0.391000	-20	-2	5	-5	
0.391500	-20	-2	4	-4	
0.392000	-20	-2	3	-2	
0.392500	-18	-2	2	0	
0.393000	-16	-4	1	2	
0.393500	-14	-4	1	4	
0.394000	-14	-4	1	7	
0.394500	-14	-3	2	9	
0.395000	-14	-2	5	14	
0.395500	-14	-2	14	20	
0.396000	-14	-2	23	25	
0.396500	-14	-3	34	30	
0.397000	-13	-5	41	34	
0.397500	-12	-5	44	37	
0.398000	-10	-5	42	38	
0.398500	-10	-5	35	37	
0.399000	-11	-5	27	32	
0.399500	-12	-4	13	25	
0.400000	-13	-3	-3	13	
0.400500	-15	-2	-22	3	
0.401000	-16	-1	-35	-5	
0.401500	-17	-2	-34	-9	
0.402000	-17	-3	-22	-10	
0.402500	-18	-3	-5	-11	
0.403000	-19	-3	12	-15	
0.403500	-19	-3	23	-20	
0.404000	-19	-2	26	-30	
0.404500	-20	-2	21	-37	
0.405000	-21	-2	11	-42	
0.405500	-22	-2	0	-42	
0.406000	-23	-2	-11	-38	
0.406500	-23	-1	-20	-32	
0.407000	-22	-1	-28	-26	
0.407500	-21	-2	-35	-23	
0.408000	-19	-3	-36	-21	
0.408500	-19	-4	-35	-19	
0.409000	-18	-5	-32	-15	
0.409500	-17	-5	-30	-11	
0.410000	-18	-4	-30	-7	
0.410500	-17	-4	-31	-4	
0.411000	-16	-4	-30	-1	
0.411500	-16	-4	-29	0	
0.412000	-15	-4	-24	2	
0.412500	-15	-4	-19	1	
0.413000	-14	-5	-13	3	
0.413500	-14	-4	-8	5	
0.414000	-14	-4	-5	6	
0.414500	-14	-4	-5	7	
0.415000	-13	-3	-7	10	
0.415500	-13	-4	-10	13	
0.416000	-12	-4	-13	14	
0.416500	-12	-4	-18	13	
0.417000	-12	-4	-22	12	
0.417500	-13	-4	-24	8	
0.418000	-14	-5	-23	5	
0.418500	-14	-5	-21	1	
0.419000	-16	-5	-18	-5	
0.419500	-16	-4	-14	-9	
0.420000	-18	-5	-11	-12	
0.420500	-18	-6	-7	-13	
0.421000	-18	-6	-4	-13	
0.421500	-18	-6	-1	-14	
0.422000	-19	-5	3	-16	
0.422500	-21	-4	6	-18	
0.423000	-22	-4	10	-21	
0.423500	-22	-4	13	-23	
0.424000	-23	-4	14	-23	
0.424500	-21	-5	13	-22	
0.425000	-19	-4	12	-21	
0.425500	-18	-4	11	-18	
0.426000	-17	-4	10	-15	
0.426500	-17	-3	11	-10	
0.427000	-16	-3	11	-7	
0.427500	-16	-2	10	-4	
0.428000	-16	-2	10	-2	
0.428500	-16	-2	9	0	
0.429000	-15	-3	9	0	
0.429500	-15	-3	7	1	
0.430000	-15	-4	6	3	
0.430500	-14	-4	5	5	
0.431000	-12	-5	3	6	
0.431500	-12	-5	2	8	
0.432000	-12	-5	1	8	
0.432500	-12	-5	0	7	
0.433000	-13	-5	-1	4	
0.433500	-14	-4	-1	1	
0.434000	-15	-5	-2	-2	
0.434500	-16	-4	-1	-5	
0.435000	-17	-3	1	-7	
0.435500	-18	-2	2	-9	
0.436000	-18	-2	4	-10	
0.436500	-18	-2	6	-7	
0.437000	-19	-2	7	-3	
0.437500	-19	-2	7	-1	
0.438000	-19	-3	7	-2	
0.438500	-21	-3	7	-5	
0.439000	-21	-3	7	-8	
0.439500	-20	-2	7	-10	
0.440000	-19	-1	6	-12	
0.440500	-19	0	6	-14	
0.441000	-18	0	5	-17	
0.441500	-19	0	4	-18	
0.442000	-20	-1	4	-19	
0.442500	-19	-3	5	-17	
0.443000	-18	-3	4	-14	
0.443500	-17	-4	4	-11	
0.444000	-17	-5	2	-7	
0.444500	-15	-6	0	-4	
0.445000	-15	-7	-2	-3	
0.445500	-14	-7	-3	-1	
0.446000	-13	-6	-4	1	
0.446500	-13	-6	-5	3	
0.447000	-13	-5	-6	5	
0.447500	-12	-5	-7	7	
0.448000	-12	-5	-9	9	
0.448500	-10	-6	-10	10	
0.449000	-10	-7	-12	10	
0.449500	-10	-7	-12	9	
0.450000	-11	-7	-13	8	
0.450500	-12	-5	-11	6	
0.451000	-14	-4	-7	6	
0.451500	-16	-3	-2	5	
0.452000	-18	-3	1	4	
0.452500	-19	-3	2	1	
0.453000	-19	-3	2	-1	
0.453500	-19	-4	1	-4	
0.454000	-19	-5	-1	-7	
0.454500	-18	-5	-2	-8	
0.455000	-19	-5	-3	-8	
0.455500	-19	-4	-1	-7	
0.456000	-21	-4	3	-4	
0.456500	-22	-4	6	-4	
0.457000	-21	-4	8	-5	
0.457500	-20	-3	9	-6	
0.458000	-19	-4	9	-6	
0.458500	-18	-4	8	-5	
0.459000	-18	-4	8	-2	
0.459500	-18	-4	6	1	
0.460000	-18	-3	5	4	
0.460500	-17	-3	5	7	
0.461000	-16	-3	3	10	
0.461500	-15	-3	2	12	
0.462000	-15	-2	1	13	
0.462500	-15	-2	-1	11	
0.463000	-14	-2	-2	8	
0.463500	-14	-3	-4	5	
0.464000	-13	-4	-4	4	
0.464500	-13	-4	-5	4	
0.465000	-13	-5	-5	6	
0.465500	-13	-5	-6	9	
0.466000	-13	-4	-6	13	
0.466500	-13	-4	-6	16	
0.467000	-14	-4	-6	17	
0.467500	-14	-3	-5	18	
0.468000	-15	-3	-3	18	
0.468500	-16	-4	-2	16	
0.469000	-17	-3	0	12	
0.469500	-17	-3	1	8	
0.470000	-18	-3	1	3	
0.470500	-18	-3	1	-1	
0.471000	-19	-2	0	-6	
0.471500	-19	-2	2	-9	
0.472000	-20	-1	3	-12	
0.472500	-20	0	6	-15	
0.473000	-21	0	9	-16	
0.473500	-20	-1	11	-18	
0.474000	-20	-3	13	-16	
0.474500	-19	-3	14	-13	
0.475000	-20	-3	14	-10	
0.475500	-20	-2	14	-6	
0.476000	-20	-2	14	-3	
0.476500	-20	-2	13	-1	
0.477000	-18	-2	11	0	
0.477500	-16	-3	9	1	
0.478000	-15	-3	8	2	
0.478500	-14	-3	7	2	
0.479000	-15	-3	6	-1	
0.479500	-14	-2	0	-5	
0.480000	-14	-2	-10	-13	
0.480500	-14	-3	-24	-19	
0.481000	-15	-3	-34	-20	
0.481500	-14	-3	-36	-13	
0.482000	-13	-5	-30	-4	
0.482500	-12	-6	-19	4	
0.483000	-11	-7	-3	10	
0.483500	-10	-7	9	13	
0.484000	-11	-5	20	12	
0.484500	-10	-5	25	10	
0.485000	-11	-5	27	8	
0.485500	-12	-5	24	5	
0.486000	-14	-5	18	2	
0.486500	-15	-5	12	-2	
0.487000	-16	-5	3	-6	
0.487500	-17	-7	-5	-11	
0.488000	-17	-7	-11	-15	
0.488500	-18	-6	-15	-18	
0.489000	-18	-5	-18	-19	
0.489500	-19	-4	-19	-20	
0.490000	-19	-4	-20	-20	
0.490500	-18	-2	-21	-20	
0.491000	-19	-2	-21	-19	
0.491500	-20	-2	-20	-19	
0.492000	-19	-2	-18	-18	
0.492500	-18	-2	-14	-16	
0.493000	-17	-3	-10	-13	
0.493500	-16	-3	-7	-10	
0.494000	-16	-4	-6	-7	
0.494500	-15	-4	-6	-2	
0.495000	-15	-3	-8	2	
0.495500	-15	-3	-10	4	
0.496000	-14	-4	-10	6	
0.496500	-14	-4	-10	9	
0.497000	-15	-3	-9	13	
0.497500	-15	-3	-7	16	
0.498000	-15	-3	-6	20	
0.498500	-14	-3	-7	22	
0.499000	-14	-4	-8	21	
0.499500	-14	-4	-7	19	
0.500000	-15	-5	-7	14	
0.500500	-16	-5	-5	9	
0.501000	-16	-4	-3	5	
0.501500	-17	-4	-1	2	
0.502000	-18	-5	1	1	
0.502500	-19	-4	2	-1	
0.503000	-19	-3	3	-4	
0.503500	-19	-2	4	-8	
0.504000	-20	-2	5	-12	
0.504500	-20	-2	6	-15	
0.505000	-20	-3	7	-18	
0.505500	-21	-3	8	-19	
0.506000	-22	-4	8	-20	
0.506500	-22	-4	8	-20	
0.507000	-22	-3	7	-20	
0.507500	-22	-3	6	-18	
0.508000	-21	-3	5	-15	
0.508500	-20	-2	4	-11	
0.509000	-19	-3	3	-8	
0.509500	-18	-3	2	-4	
0.510000	-17	-4	1	-2	
0.510500	-17	-4	-1	0	
0.511000	-15	-4	-3	2	
0.511500	-15	-4	-3	2	
0.512000	-13	-4	-2	3	
0.512500	-13	-4	-1	4	
0.513000	-12	-6	0	5	
0.513500	-12	-5	0	8	
0.514000	-12	-4	-1	8	
0.514500	-12	-3	-3	9	
0.515000	-12	-2	-4	9	
0.515500	-12	-2	-5	10	
0.516000	-12	-3	-7	11	
0.516500	-13	-4	-10	13	
0.517000	-13	-5	-11	12	
0.517500	-15	-6	-11	11	
0.518000	-16	-6	-9	8	
0.518500	-17	-5	-6	4	
0.519000	-18	-4	-3	2	
0.519500	-19	-3	0	-1	
0.520000	-20	-4	2	-2	
0.520500	-19	-4	3	-3	
0.521000	-19	-5	4	-3	
0.521500	-19	-6	6	-3	
0.522000	-19	-5	7	-3	
0.522500	-19	-5	7	-5	
0.523000	-19	-4	6	-9	
0.523500	-19	-4	6	-12	
0.524000	-19	-4	5	-15	
0.524500	-18	-3	5	-16	
0.525000	-17	-3	5	-16	
0.525500	-17	-2	4	-15	
0.526000	-17	-3	4	-12	
0.526500	-15	-4	2	-10	
0.527000	-15	-4	0	-10	
0.527500	-14	-5	-1	-10	
0.528000	-13	-4	-3	-8	
0.528500	-13	-3	-5	-7	
0.529000	-14	-3	-7	-5	
0.529500	-14	-4	-8	-3	
0.530000	-14	-4	-9	-1	
0.530500	-13	-4	-9	3	
0.531000	-12	-5	-9	6	
0.531500	-11	-6	-10	9	
0.532000	-9	-6	-11	13	
0.532500	-9	-7	-11	13	
0.533000	-10	-8	-12	12	
0.533500	-12	-8	-12	10	
0.534000	-14	-7	-9	8	
0.534500	-15	-6	-3	6	
0.535000	-17	-4	3	3	
0.535500	-19	-2	10	0	
0.536000	-19	0	16	-1	
0.536500	-21	1	18	-4	
0.537000	-22	1	18	-6	
0.537500	-22	0	16	-7	
0.538000	-22	-1	15	-9	
0.538500	-21	-3	14	-11	
0.539000	-21	-4	13	-14	
0.539500	-22	-3	11	-15	
0.540000	-22	-3	9	-17	
0.540500	-22	-2	7	-16	
0.541000	-21	-1	6	-15	
0.541500	-19	-1	4	-13	
0.542000	-18	-1	3	-10	
0.542500	-16	-2	2	-8	
0.543000	-15	-2	0	-7	
0.543500	-15	-3	-1	-6	
0.544000	-14	-4	-3	-5	
0.544500	-14	-5	-4	-3	
0.545000	-14	-5	-4	-2	
0.545500	-14	-4	-4	-3	
0.546000	-15	-4	-4	-4	
0.546500	-15	-4	-4	-8	
0.547000	-14	-5	-4	-11	
0.547500	-13	-5	-4	-11	
0.548000	-13	-5	-5	-10	
0.548500	-12	-5	-6	-7	
0.549000	-12	-5	-7	-2	
0.549500	-11	-6	-7	1	
0.550000	-11	-6	-7	5	
0.550500	-12	-7	-6	7	
0.551000	-13	-6	-5	7	
0.551500	-15	-4	-3	7	
0.552000	-16	-4	-1	5	
0.552500	-17	-4	0	5	
0.553000	-18	-4	4	6	
0.553500	-19	-3	6	8	
0.554000	-20	-3	8	10	
0.554500	-20	-2	10	9	
0.555000	-21	-2	11	8	
0.555500	-21	-2	13	6	
0.556000	-21	-2	15	4	
0.556500	-21	-2	16	2	
0.557000	-20	-3	16	0	
0.557500	-19	-3	17	0	
0.558000	-18	-4	17	-2	
0.558500	-17	-4	16	-5	
0.559000	-16	-4	11	-10	
0.559500	-16	-4	1	-15	
0.560000	-16	-3	-12	-21	
0.560500	-16	-3	-21	-22	
0.561000	-16	-3	-25	-18	
0.561500	-15	-4	-23	-10	
0.562000	-15	-5	-19	-4	
0.562500	-15	-6	-15	1	
0.563000	-14	-7	-12	4	
0.563500	-14	-7	-10	5	
0.564000	-14	-7	-11	7	
0.564500	-13	-6	-12	9	
0.565000	-13	-6	-12	11	
0.565500	-13	-6	-12	13	
0.566000	-13	-6	-12	13	
0.566500	-12	-6	-11	13	
0.567000	-14	-6	-11	11	
0.567500	-15	-6	-11	6	
0.568000	-16	-4	-9	1	
0.568500	-16	-3	-6	-1	
0.569000	-17	-2	-4	-4	
0.569500	-18	-3	-3	-8	
0.570000	-18	-2	-1	-9	
0.570500	-19	-3	2	-9	
0.571000	-20	-2	4	-9	
0.571500	-20	-2	6	-10	
0.572000	-20	-2	8	-11	
0.572500	-20	-2	9	-13	
0.573000	-19	-2	9	-14	
0.573500	-20	-3	10	-15	
0.574000	-20	-4	10	-17	
0.574500	-20	-4	15	-17	
0.575000	-19	-4	23	-16	
0.575500	-18	-3	31	-15	
0.576000	-18	-3	37	-12	
0.576500	-17	-3	40	-9	
0.577000	-17	-3	38	-7	
0.577500	-16	-2	31	-6	
0.578000	-14	-3	21	-6	
0.578500	-13	-3	11	-5	
0.579000	-12	-4	-1	-5	
0.579500	-12	-5	-10	-4	
0.580000	-12	-5	-18	-3	
0.580500	-12	-4	-23	-1	
0.581000	-12	-3	-26	2	
0.581500	-12	-4	-28	7	
0.582000	-12	-4	-28	11	
0.582500	-13	-5	-28	15	
0.583000	-14	-4	-27	16	
0.583500	-15	-5	-25	15	
0.584000	-17	-5	-21	11	
0.584500	-19	-4	-14	7	
0.585000	-19	-3	-7	2	
0.585500	-19	-2	-2	-1	
0.586000	-19	-2	0	-4	
0.586500	-19	-3	1	-8	
0.587000	-19	-4	1	-10	
0.587500	-19	-4	0	-13	
0.588000	-19	-5	0	-14	
0.588500	-20	-4	1	-15	
0.589000	-21	-4	2	-16	
0.589500	-21	-4	2	-17	
0.590000	-21	-5	3	-19	
0.590500	-21	-5	3	-19	
0.591000	-21	-4	3	-18	
0.591500	-19	-4	4	-17	
0.592000	-18	-4	3	-15	
0.592500	-17	-4	2	-12	
0.593000	-16	-4	0	-9	
0.593500	-15	-5	-1	-7	
0.594000	-15	-6	-2	-4	
0.594500	-14	-6	-3	-2	
0.595000	-14	-5	-4	-1	
0.595500	-14	-4	-4	1	
0.596000	-14	-6	-6	3	
0.596500	-14	-6	-7	5	
0.597000	-15	-6	-8	6	
0.597500	-14	-6	-8	8	
0.598000	-13	-6	-9	9	
0.598500	-11	-5	-9	10	
0.599000	-11	-5	-9	10	
0.599500	-11	-4	-8	10	
0.600000	-12	-5	-5	8	
0.600500	-14	-4	-3	4	
0.601000	-15	-4	-1	1	
0.601500	-16	-4	0	-4	
0.602000	-17	-4	0	-7	
0.602500	-18	-3	0	-10	
0.603000	-19	-3	0	-14	
0.603500	-20	-3	1	-17	
0.604000	-20	-4	1	-21	
0.604500	-20	-4	1	-25	
0.605000	-20	-4	2	-30	
0.605500	-19	-5	0	-33	
0.606000	-20	-6	-1	-34	
0.606500	-21	-6	-2	-35	
0.607000	-22	-5	-1	-35	
0.607500	-24	-4	1	-35	
0.608000	-24	-4	3	-33	
0.608500	-24	-4	5	-30	
0.609000	-22	-6	6	-25	
0.609500	-20	-7	5	-20	
0.610000	-19	-7	4	-14	
0.610500	-17	-8	1	-8	
0.611000	-16	-7	0	0	
0.611500	-15	-7	-3	7	
0.612000	-14	-7	-5	16	
0.612500	-14	-7	-6	23	
0.613000	-14	-7	-4	28	
0.613500	-15	-6	-1	30	
0.614000	-15	-6	0	28	
0.614500	-15	-5	0	26	
0.615000	-15	-5	-1	23	
0.615500	-14	-5	-4	20	
0.616000	-14	-5	-6	19	
0.616500	-14	-4	-7	18	
0.617000	-14	-4	-6	16	
0.617500	-14	-3	-5	13	
0.618000	-16	-3	-3	10	
0.618500	-17	-4	-3	5	
0.619000	-18	-5	-3	1	
0.619500	-18	-5	-2	-4	
0.620000	-18	-4	-1	-7	
0.620500	-19	-4	4	-9	
0.621000	-21	-2	11	-11	
0.621500	-22	0	16	-13	
0.622000	-23	2	19	-15	
0.622500	-23	2	19	-17	
0.623000	-24	2	17	-17	
0.623500	-23	1	15	-18	
0.624000	-22	0	13	-17	
0.624500	-21	-1	12	-15	
0.625000	-21	-2	9	-13	
0.625500	-20	-3	7	-10	
0.626000	-19	-5	5	-5	
0.626500	-19	-7	4	-1	
0.627000	-18	-7	2	2	
0.627500	-15	-8	1	6	
0.628000	-14	-7	1	8	
0.628500	-14	-7	1	10	
0.629000	-15	-6	0	10	
0.629500	-15	-6	0	9	
0.630000	-15	-6	0	8	
0.630500	-15	-6	-2	8	
0.631000	-13	-5	-4	9	
0.631500	-11	-5	-5	8	
0.632000	-10	-5	-6	8	
0.632500	-11	-4	-8	7	
0.633000	-12	-3	-8	6	
0.633500	-12	-4	-7	5	
0.634000	-13	-4	-5	2	
0.634500	-13	-4	-3	-2	
0.635000	-14	-4	-1	-7	
0.635500	-14	-4	2	-12	
0.636000	-15	-4	4	-17	
0.636500	-16	-4	7	-20	
0.637000	-18	-4	9	-20	
0.637500	-19	-4	12	-18	
0.638000	-20	-5	14	-14	
0.638500	-20	-5	16	-10	
0.639000	-20	-5	18	-5	
0.639500	-20	-5	19	0	
0.640000	-20	-5	19	3	
0.640500	-19	-4	18	6	
0.641000	-17	-4	15	6	
0.641500	-16	-5	11	1	
0.642000	-14	-4	1	-7	
0.642500	-13	-2	-10	-18	
0.643000	-14	-1	-21	-25	
0.643500	-15	-2	-27	-25	
0.644000	-15	-2	-28	-19	
0.644500	-14	-3	-25	-12	
0.645000	-13	-3	-21	-5	
0.645500	-12	-3	-17	0	
0.646000	-13	-3	-15	4	
0.646500	-13	-3	-13	8	
0.647000	-13	-4	-12	11	
0.647500	-12	-4	-10	13	
0.648000	-12	-5	-9	14	
0.648500	-11	-6	-9	13	
0.649000	-12	-7	-9	12	
0.649500	-11	-6	-10	11	
0.650000	-11	-5	-9	10	
0.650500	-14	-4	-9	8	
0.651000	-15	-3	-7	6	
0.651500	-16	-2	-6	4	
0.652000	-16	-3	-4	2	
0.652500	-17	-3	-3	-1	
0.653000	-18	-4	-2	-3	
0.653500	-18	-4	0	-5	
0.654000	-20	-3	1	-5	
0.654500	-21	-1	4	-5	
0.655000	-22	0	6	-6	
0.655500	-22	0	8	-9	
0.656000	-21	0	9	-12	
0.656500	-22	-1	10	-15	
0.657000	-23	-3	10	-16	
0.657500	-22	-3	10	-16	
0.658000	-20	-2	8	-16	
0.658500	-19	-2	6	-16	
0.659000	-19	-2	4	-13	
0.659500	-18	-3	1	-11	
0.660000	-17	-4	-1	-9	
0.660500	-15	-5	-1	-6	
0.661000	-14	-4	-1	-4	
0.661500	-13	-3	-1	-3	
0.662000	-13	-4	-1	-3	
0.662500	-13	-5	-1	-3	
0.663000	-13	-6	-2	-2	
0.663500	-13	-5	-3	-1	
0.664000	-13	-5	-3	1	
0.664500	-13	-4	-3	2	
0.665000	-13	-4	-4	4	
0.665500	-12	-4	-5	6	
0.666000	-12	-4	-6	8	
0.666500	-13	-5	-7	9	
0.667000	-13	-5	-9	7	
0.667500	-14	-5	-10	4	
0.668000	-16	-4	-4	2	
0.668500	-17	-3	4	1	
0.669000	-18	-3	14	1	
0.669500	-18	-3	25	1	
0.670000	-18	-3	33	-2	
0.670500	-18	-3	35	-4	
0.671000	-19	-3	34	-6	
0.671500	-19	-2	31	-9	
0.672000	-20	-1	24	-12	
0.672500	-21	-1	17	-14	
0.673000	-22	-1	6	-16	
0.673500	-21	-1	-3	-17	
0.674000	-21	0	-11	-18	
0.674500	-21	-1	-19	-17	
0.675000	-21	-1	-28	-16	
0.675500	-20	-1	-35	-13	
0.676000	-18	-3	-39	-9	
0.676500	-17	-4	-40	-5	
0.677000	-16	-5	-40	-3	
0.677500	-15	-6	-38	-1	
0.678000	-14	-6	-31	0	
0.678500	-14	-6	-22	2	
0.679000	-14	-6	-14	5	
0.679500	-13	-6	-8	7	
0.680000	-12	-6	-6	9	
0.680500	-10	-6	-5	11	
0.681000	-9	-6	-4	13	
0.681500	-9	-6	-3	14	
0.682000	-8	-6	-2	16	
0.682500	-8	-6	-2	16	
0.683000	-8	-6	-3	15	
0.683500	-9	-6	-3	14	
0.684000	-11	-6	-1	10	
0.684500	-13	-6	1	6	
0.685000	-16	-6	3	2	
0.685500	-18	-4	5	-2	
0.686000	-20	-4	6	-5	
0.686500	-21	-3	7	-8	
0.687000	-21	-4	7	-9	
0.687500	-20	-3	7	-10	
0.688000	-20	-3	7	-11	
0.688500	-20	-2	9	-12	
0.689000	-21	0	11	-13	
0.689500	-22	1	12	-14	
0.690000	-22	2	14	-14	
0.690500	-22	3	15	-13	
0.691000	-22	3	16	-12	
0.691500	-21	2	17	-10	
0.692000	-21	0	16	-8	
0.692500	-20	-1	14	-7	
0.693000	-20	-1	10	-5	
0.693500	-17	-3	6	-3	
0.694000	-16	-4	3	0	
0.694500	-15	-4	1	3	
0.695000	-14	-4	1	4	
0.695500	-14	-3	-1	4	
0.696000	-13	-3	-1	4	
0.696500	-13	-3	-2	4	
0.697000	-13	-4	-3	4	
0.697500	-12	-5	-3	6	
0.698000	-11	-5	-5	8	
0.698500	-11	-5	-5	8	
0.699000	-12	-5	-6	10	
0.699500	-12	-5	-7	12	
0.700000	-12	-5	-8	12	
0.700500	-12	-4	-7	11	
0.701000	-14	-5	-6	8	
0.701500	-15	-4	-2	3	
0.702000	-17	-4	0	0	
0.702500	-19	-3	2	-4	
0.703000	-20	-3	4	-7	
0.703500	-20	-3	6	-10	
0.704000	-19	-4	7	-13	
0.704500	-19	-4	9	-15	
0.705000	-19	-4	10	-16	
0.705500	-20	-4	11	-18	
0.706000	-21	-4	12	-20	
0.706500	-21	-4	11	-23	
0.707000	-19	-4	10	-25	
0.707500	-18	-5	10	-27	
0.708000	-18	-4	8	-30	
0.708500	-19	-4	3	-33	
0.709000	-19	-3	-7	-38	
0.709500	-18	-3	-17	-39	
0.710000	-17	-3	-23	-33	
0.710500	-17	-4	-24	-24	
0.711000	-15	-5	-21	-13	
0.711500	-15	-6	-18	-3	
0.712000	-14	-6	-15	5	
0.712500	-14	-6	-13	10	
0.713000	-14	-6	-12	12	
0.713500	-14	-7	-11	12	
0.714000	-13	-7	-10	13	
0.714500	-11	-7	-10	15	
0.715000	-11	-7	-10	16	
0.715500	-11	-5	-9	17	
0.716000	-12	-4	-8	15	
0.716500	-12	-5	-7	13	
0.717000	-13	-5	-5	12	
0.717500	-14	-4	-3	8	
0.718000	-14	-4	-2	5	
0.718500	-15	-4	-2	2	
0.719000	-16	-3	-2	-2	
0.719500	-19	-2	-2	-7	
0.720000	-21	-1	-1	-13	
0.720500	-21	-1	0	-17	
0.721000	-21	0	1	-21	
0.721500	-22	-1	1	-23	
0.722000	-23	-2	3	-23	
0.722500	-23	-2	3	-24	
0.723000	-24	-2	4	-24	
0.723500	-23	-3	4	-23	
0.724000	-22	-3	4	-21	
0.724500	-22	-4	4	-18	
0.725000	-21	-3	3	-16	
0.725500	-19	-3	2	-13	
0.726000	-18	-2	2	-10	
0.726500	-17	-2	3	-6	
0.727000	-17	-1	2	-2	
0.727500	-16	-1	1	3	
0.728000	-15	-1	1	7	
0.728500	-16	-1	-1	11	
0.729000	-16	-1	0	15	
0.729500	-17	-1	0	16	
0.730000	-15	-2	1	17	
0.730500	-13	-2	0	16	
0.731000	-12	-3	-1	16	
0.731500	-11	-4	-2	15	
0.732000	-11	-5	-4	16	
0.732500	-11	-5	-5	16	
0.733000	-12	-5	-6	17	
0.733500	-12	-4	-7	18	
0.734000	-12	-4	-6	17	
0.734500	-13	-4	-5	13	
0.735000	-14	-4	-4	8	
0.735500	-15	-3	-2	4	
0.736000	-17	-3	0	0	
0.736500	-18	-4	1	-4	
0.737000	-19	-4	3	-7	
0.737500	-19	-4	4	-10	
0.738000	-20	-4	6	-13	
0.738500	-22	-3	8	-18	
0.739000	-22	-3	9	-21	
0.739500	-21	-1	8	-23	
0.740000	-20	-1	7	-24	
0.740500	-20	-1	6	-24	
0.741000	-20	-1	7	-25	
0.741500	-20	-2	8	-26	
0.742000	-20	-3	8	-25	
0.742500	-19	-3	7	-24	
0.743000	-18	-3	4	-20	
0.743500	-16	-3	3	-15	
0.744000	-15	-3	0	-8	
0.744500	-13	-4	-1	-3	
0.745000	-12	-4	-1	1	
0.745500	-12	-5	-1	4	
0.746000	-12	-5	-2	6	
0.746500	-13	-5	-2	7	
0.747000	-13	-5	-3	9	
0.747500	-13	-5	-4	11	
0.748000	-12	-4	-6	14	
0.748500	-11	-4	-7	16	
0.749000	-11	-4	-9	19	
0.749500	-12	-4	-10	21	
0.750000	-11	-4	-9	22	
0.750500	-12	-4	-7	20	
0.751000	-13	-3	-6	16	
0.751500	-14	-4	-3	8	
0.752000	-16	-5	0	2	
0.752500	-17	-5	2	-4	
0.753000	-18	-5	4	-9	
0.753500	-17	-5	4	-12	
0.754000	-18	-5	5	-16	
0.754500	-19	-5	5	-19	
0.755000	-20	-4	7	-20	
0.755500	-20	-3	8	-22	
0.756000	-21	-2	10	-25	
0.756500	-21	-2	10	-27	
0.757000	-20	-2	10	-27	
0.757500	-20	-3	10	-27	
0.758000	-21	-3	10	-27	
0.758500	-19	-3	10	-26	
0.759000	-18	-3	9	-26	
0.759500	-17	-3	8	-23	
0.760000	-16	-4	6	-19	
0.760500	-15	-5	3	-15	
0.761000	-14	-6	1	-11	
0.761500	-14	-5	-1	-8	
0.762000	-13	-6	-3	-5	
0.762500	-13	-5	-4	-3	
0.763000	-14	-4	-6	0	
0.763500	-14	-4	-7	3	
0.764000	-14	-3	-6	6	
0.764500	-12	-3	-7	9	
0.765000	-10	-3	-7	14	
0.765500	-9	-3	-9	16	
0.766000	-9	-3	-10	17	
0.766500	-9	-4	-10	16	
0.767000	-11	-4	-9	14	
0.767500	-12	-3	-7	10	
0.768000	-14	-3	-5	4	
0.768500	-15	-3	-4	-1	
0.769000	-16	-3	-3	-6	
0.769500	-19	-2	0	-8	
0.770000	-20	-2	4	-9	
0.770500	-21	-2	8	-10	
0.771000	-20	-2	10	-13	
0.771500	-20	-1	10	-16	
0.772000	-20	-2	10	-19	
0.772500	-20	-3	10	-20	
0.773000	-20	-3	13	-19	
0.773500	-20	-4	19	-18	
0.774000	-20	-5	27	-15	
0.774500	-19	-4	34	-13	
0.775000	-19	-5	39	-11	
0.775500	-17	-5	39	-9	
0.776000	-16	-5	36	-7	
0.776500	-15	-4	32	-1	
0.777000	-15	-4	25	4	
0.777500	-14	-4	16	8	
0.778000	-12	-4	3	10	
0.778500	-11	-6	-9	9	
0.779000	-12	-6	-16	10	
0.779500	-13	-6	-19	12	
0.780000	-14	-5	-19	12	
0.780500	-14	-5	-18	13	
0.781000	-12	-5	-18	15	
0.781500	-11	-6	-19	18	
0.782000	-9	-7	-19	21	
0.782500	-9	-8	-18	22	
0.783000	-9	-9	-13	22	
0.783500	-11	-9	-8	21	
0.784000	-12	-9	-1	16	
0.784500	-13	-9	3	10	
0.785000	-14	-8	2	2	
0.785500	-16	-7	-6	-9	
0.786000	-18	-5	-15	-17	
0.786500	-20	-4	-20	-20	
0.787000	-22	-3	-20	-20	
0.787500	-22	-4	-14	-18	
0.788000	-23	-3	-7	-17	
0.788500	-23	-4	-1	-18	
0.789000	-23	-4	3	-20	
0.789500	-22	-5	4	-23	
0.790000	-21	-5	4	-25	
0.790500	-21	-5	4	-24	
0.791000	-20	-5	4	-23	
0.791500	-20	-5	4	-21	
0.792000	-19	-4	5	-19	
0.792500	-18	-2	5	-15	
0.793000	-17	-3	4	-11	
0.793500	-16	-3	2	-7	
0.794000	-15	-3	0	-1	
0.794500	-15	-4	-3	3	
0.795000	-14	-4	-5	6	
0.795500	-13	-4	-7	8	
0.796000	-14	-4	-7	10	
0.796500	-13	-4	-8	10	
0.797000	-13	-5	-8	11	
0.797500	-12	-5	-7	12	
0.798000	-12	-5	-6	12	
0.798500	-11	-5	-5	13	
0.799000	-10	-5	-6	12	
0.799500	-10	-4	-7	11	
0.800000	-11	-4	-8	7	
0.800500	-12	-3	-8	3	
0.801000	-15	-2	-5	-1	
0.801500	-17	-1	-3	-5	
0.802000	-18	-2	-1	-8	
0.802500	-18	-2	-1	-9	
0.803000	-19	-2	0	-10	
0.803500	-19	-2	1	-11	
0.804000	-19	-2	3	-14	
0.804500	-19	-1	4	-15	
0.805000	-19	-1	5	-18	
0.805500	-20	-1	5	-21	
0.806000	-20	-1	6	-23	
0.806500	-20	-1	6	-24	
0.807000	-20	-1	8	-23	
0.807500	-19	-1	9	-22	
0.808000	-17	-2	9	-21	
0.808500	-18	-3	9	-18	
0.809000	-18	-3	8	-15	
0.809500	-17	-3	6	-11	
0.810000	-17	-3	5	-6	
0.810500	-16	-2	3	-2	
0.811000	-16	-2	2	3	
0.811500	-15	-2	0	6	
0.812000	-14	-2	-1	9	
0.812500	-14	-2	-1	12	
0.813000	-14	-3	-3	13	
0.813500	-14	-3	-5	14	
0.814000	-12	-3	-6	16	
0.814500	-10	-4	-7	18	
0.815000	-10	-4	-9	20	
0.815500	-9	-5	-9	23	
0.816000	-10	-4	-10	26	
0.816500	-11	-4	-9	25	
0.817000	-12	-4	-8	21	
0.817500	-14	-4	-6	15	
0.818000	-16	-3	-2	8	
0.818500	-17	-3	1	1	
0.819000	-17	-3	3	-5	
0.819500	-18	-3	4	-11	
0.820000	-19	-3	6	-17	
0.820500	-19	-3	6	-23	
0.821000	-20	-4	8	-28	
0.821500	-20	-4	9	-32	
0.822000	-21	-4	10	-36	
0.822500	-21	-5	11	-36	
0.823000	-20	-6	11	-35	
0.823500	-20	-7	10	-31	
0.824000	-19	-7	8	-26	
0.824500	-17	-5	7	-23	
0.825000	-17	-4	6	-20	
0.825500	-17	-2	6	-16	
0.826000	-17	-1	5	-13	
0.826500	-17	0	4	-10	
0.827000	-17	-1	3	-8	
0.827500	-17	-2	2	-7	
0.828000	-17	-2	0	-5	
0.828500	-16	-2	-1	-3	
0.829000	-16	-3	-1	-1	
0.829500	-15	-4	-1	1	
0.830000	-15	-5	-1	3	
0.830500	-15	-5	-2	3	
0.831000	-14	-5	-3	4	
0.831500	-13	-5	-5	9	
0.832000	-12	-5	-6	13	
0.832500	-12	-5	-6	15	
0.833000	-13	-5	-6	14	
0.833500	-14	-4	-5	12	
0.834000	-14	-4	-5	6	
0.834500	-15	-4	-3	2	
0.835000	-16	-4	-3	-2	
0.835500	-16	-4	-2	-6	
0.836000	-17	-4	-1	-9	
0.836500	-19	-3	1	-13	
0.837000	-20	-4	3	-16	
0.837500	-21	-4	4	-19	
0.838000	-22	-4	5	-23	
0.838500	-23	-4	6	-26	
0.839000	-23	-4	6	-29	
0.839500	-22	-4	6	-31	
0.840000	-21	-4	5	-31	
0.840500	-19	-5	4	-29	
0.841000	-19	-5	3	-27	
0.841500	-18	-6	2	-23	
0.842000	-18	-5	1	-20	
0.842500	-18	-5	0	-16	
0.843000	-19	-4	1	-11	
0.843500	-18	-4	1	-6	
0.844000	-17	-4	-1	-3	
0.844500	-15	-5	-3	0	
0.845000	-13	-5	-5	2	
0.845500	-13	-6	-8	4	
0.846000	-13	-6	-9	7	
0.846500	-11	-5	-10	8	
0.847000	-10	-6	-11	9	
0.847500	-10	-6	-13	10	
0.848000	-8	-7	-15	12	
0.848500	-7	-7	-15	15	
0.849000	-7	-7	-13	17	
0.849500	-9	-5	-7	18	
0.850000	-10	-4	-2	19	
0.850500	-12	-2	1	16	
0.851000	-14	-1	2	11	
0.851500	-15	0	2	5	
0.852000	-17	-1	2	1	
0.852500	-17	-2	1	-4	
0.853000	-18	-2	1	-8	
0.853500	-19	-2	3	-13	
0.854000	-20	-2	3	-18	
0.854500	-21	-2	4	-20	
0.855000	-22	-2	4	-22	
0.855500	-24	-2	6	-21	
0.856000	-24	-2	8	-19	
0.856500	-23	-2	9	-14	
0.857000	-23	-1	9	-9	
0.857500	-22	-1	8	-4	
0.858000	-21	-1	7	-1	
0.858500	-21	-1	4	1	
0.859000	-21	-1	4	4	
0.859500	-19	-2	3	5	
0.860000	-18	-3	2	6	
0.860500	-16	-3	2	8	
0.861000	-15	-3	4	11	
0.861500	-14	-3	6	15	
0.862000	-14	-3	8	17	
0.862500	-14	-4	8	20	
0.863000	-14	-5	8	21	
0.863500	-13	-5	9	21	
0.864000	-13	-5	9	21	
0.864500	-11	-5	7	22	
0.865000	-10	-6	5	25	
0.865500	-9	-7	3	26	
0.866000	-9	-7	2	26	
0.866500	-11	-5	1	19	
0.867000	-11	-5	-2	9	
0.867500	-12	-3	-8	-5	
0.868000	-15	-3	-18	-19	
0.868500	-17	-3	-27	-30	
0.869000	-19	-3	-32	-34	
0.869500	-21	-4	-30	-34	
0.870000	-22	-4	-22	-32	
0.870500	-22	-3	-9	-31	
0.871000	-23	-3	5	-32	
0.871500	-24	-3	21	-36	
0.872000	-25	-3	33	-40	
0.872500	-24	-3	43	-45	
0.873000	-23	-4	45	-47	
0.873500	-22	-6	42	-46	
0.874000	-21	-6	36	-44	
0.874500	-20	-6	27	-40	
0.875000	-19	-6	17	-35	
0.875500	-19	-6	5	-32	
0.876000	-17	-6	-5	-27	
0.876500	-16	-7	-13	-21	
0.877000	-15	-7	-20	-15	
0.877500	-15	-6	-24	-10	
0.878000	-14	-5	-26	-4	
0.878500	-13	-4	-27	2	
0.879000	-14	-4	-27	7	
0.879500	-13	-3	-25	10	
0.880000	-14	-3	-23	13	
0.880500	-13	-3	-20	16	
0.881000	-13	-3	-17	21	
0.881500	-11	-4	-14	27	
0.882000	-9	-5	-13	33	
0.882500	-9	-6	-12	36	
0.883000	-8	-8	-13	38	
0.883500	-9	-7	-14	37	
0.884000	-12	-6	-14	34	
0.884500	-14	-5	-11	30	
0.885000	-16	-4	-8	27	
0.885500	-17	-3	-4	22	
0.886000	-18	-2	-1	18	
0.886500	-19	-2	1	12	
0.887000	-20	-2	4	6	
0.887500	-21	-3	6	-1	
0.888000	-23	-4	8	-8	
0.888500	-24	-4	10	-13	
0.889000	-24	-4	12	-17	
0.889500	-24	-3	11	-19	
0.890000	-24	-3	10	-20	
0.890500	-23	-3	8	-19	
0.891000	-22	-4	5	-17	
0.891500	-21	-3	5	-15	
0.892000	-20	-3	4	-14	
0.892500	-19	-3	3	-13	
0.893000	-17	-4	2	-13	
0.893500	-15	-4	0	-13	
0.894000	-14	-4	-2	-12	
0.894500	-14	-5	-3	-12	
0.895000	-13	-5	-5	-10	
0.895500	-13	-6	-4	-8	
0.896000	-12	-7	-5	-7	
0.896500	-12	-7	-5	-6	
0.897000	-11	-7	-6	-5	
0.897500	-9	-7	-8	-3	
0.898000	-8	-9	-11	2	
0.898500	-5	-10	-15	7	
0.899000	-5	-11	-17	10	
0.899500	-4	-12	-19	11	
0.900000	-5	-12	-18	8	
0.900500	-7	-11	-17	4	
0.901000	-10	-11	-14	-2	
0.901500	-13	-10	-11	-6	
0.902000	-14	-8	-10	-8	
0.902500	-15	-6	-9	-10	
0.903000	-16	-4	-8	-12	
0.903500	-18	-4	-7	-14	
0.904000	-19	-3	-7	-17	
0.904500	-20	-2	-3	-19	
0.905000	-23	-1	3	-20	
0.905500	-25	0	12	-22	
0.906000	-26	0	19	-24	
0.906500	-25	0	22	-25	
0.907000	-24	-1	20	-23	
0.907500	-22	0	17	-19	
0.908000	-20	0	14	-13	
0.908500	-19	0	12	-8	
0.909000	-19	2	11	-3	
0.909500	-18	3	9	1	
0.910000	-18	3	6	4	
0.910500	-17	2	4	6	
0.911000	-16	1	3	7	
0.911500	-15	0	1	9	
0.912000	-14	-1	-1	10	
0.912500	-14	-2	-3	12	
0.913000	-13	-2	-3	13	
0.913500	-11	-3	-3	15	
0.914000	-10	-4	-5	15	
0.914500	-9	-4	-7	17	
0.915000	-7	-5	-10	20	
0.915500	-7	-4	-12	23	
0.916000	-7	-4	-13	24	
0.916500	-8	-4	-12	23	
0.917000	-10	-4	-11	20	
0.917500	-12	-4	-10	14	
0.918000	-15	-4	-7	6	
0.918500	-16	-4	-5	-1	
0.919000	-17	-4	-2	-10	
0.919500	-19	-2	1	-17	
0.920000	-21	-1	3	-27	
0.920500	-22	0	5	-35	
0.921000	-24	0	7	-42	
0.921500	-25	0	9	-48	
0.922000	-25	-1	10	-52	
0.922500	-25	-2	11	-54	
0.923000	-24	-2	10	-50	
0.923500	-24	-3	8	-45	
0.924000	-22	-3	6	-39	
0.924500	-22	-4	6	-33	
0.925000	-21	-5	5	-26	
0.925500	-19	-5	5	-17	
0.926000	-18	-5	5	-7	
0.926500	-16	-5	4	-1	
0.927000	-15	-4	2	2	
0.927500	-15	-4	-1	3	
0.928000	-14	-4	-4	6	
0.928500	-13	-5	-6	9	
0.929000	-13	-5	-8	12	
0.929500	-13	-6	-8	14	
0.930000	-12	-5	-9	14	
0.930500	-11	-6	-9	15	
0.931000	-9	-7	-10	17	
0.931500	-7	-8	-11	23	
0.932000	-5	-8	-13	28	
0.932500	-5	-8	-15	34	
0.933000	-6	-7	-16	36	
0.933500	-6	-7	-15	36	
0.934000	-8	-7	-13	31	
0.934500	-11	-6	-10	27	
0.935000	-13	-5	-7	21	
0.935500	-15	-4	-5	14	
0.936000	-16	-3	-2	6	
0.936500	-18	-3	0	-2	
0.937000	-19	-2	3	-10	
0.937500	-21	-2	5	-16	
0.938000	-23	-2	8	-21	
0.938500	-24	-2	11	-24	
0.939000	-25	-1	12	-26	
0.939500	-25	-1	12	-26	
0.940000	-24	-1	10	-23	
0.940500	-22	-1	10	-17	
0.941000	-22	0	11	-10	
0.941500	-21	-1	12	-5	
0.942000	-20	-2	12	-2	
0.942500	-19	-3	12	-1	
0.943000	-19	-4	10	1	
0.943500	-17	-5	9	3	
0.944000	-16	-5	9	6	
0.944500	-14	-5	8	8	
0.945000	-13	-5	8	9	
0.945500	-12	-5	7	7	
0.946000	-12	-6	5	3	
0.946500	-13	-7	2	-3	
0.947000	-12	-7	-8	-8	
0.947500	-11	-8	-21	-15	
0.948000	-9	-8	-32	-15	
0.948500	-9	-8	-37	-10	
0.949000	-9	-8	-37	0	
0.949500	-8	-8	-31	8	
0.950000	-9	-8	-26	16	
0.950500	-10	-6	-20	19	
0.951000	-13	-6	-16	17	
0.951500	-14	-6	-14	12	
0.952000	-16	-6	-11	6	
0.952500	-18	-5	-9	-1	
0.953000	-20	-4	-4	-9	
0.953500	-21	-2	0	-16	
0.954000	-23	-1	3	-21	
0.954500	-25	1	6	-25	
0.955000	-26	1	8	-31	
0.955500	-27	1	12	-34	
0.956000	-28	1	14	-36	
0.956500	-27	0	16	-34	
0.957000	-25	-1	16	-30	
0.957500	-23	-2	14	-26	
0.958000	-21	-3	11	-21	
0.958500	-19	-4	9	-17	
0.959000	-19	-3	7	-11	
0.959500	-18	-3	6	-5	
0.960000	-17	-3	4	-1	
0.960500	-17	-3	3	3	
0.961000	-16	-4	1	5	
0.961500	-15	-5	0	7	
0.962000	-14	-6	-2	8	
0.962500	-13	-6	-2	8	
0.963000	-13	-6	-3	9	
0.963500	-12	-4	-4	10	
0.964000	-12	-4	-5	12	
0.964500	-11	-3	-7	15	
0.965000	-10	-4	-10	20	
0.965500	-9	-4	-12	24	
0.966000	-9	-5	-13	26	
0.966500	-10	-5	-13	26	
0.967000	-10	-4	-11	24	
0.967500	-13	-4	-9	18	
0.968000	-14	-3	-6	12	
0.968500	-16	-2	-4	6	
0.969000	-17	-2	-2	0	
0.969500	-18	-2	0	-5	
0.970000	-20	-2	2	-11	
0.970500	-22	-1	5	-16	
0.971000	-24	1	8	-19	
0.971500	-26	1	11	-25	
0.972000	-26	2	13	-31	
0.972500	-26	1	14	-35	
0.973000	-25	-1	12	-35	
0.973500	-23	-2	11	-32	
0.974000	-21	-2	12	-28	
0.974500	-20	-2	19	-25	
0.975000	-19	-3	29	-25	
0.975500	-19	-3	39	-23	
0.976000	-17	-4	43	-21	
0.976500	-16	-4	43	-15	
0.977000	-14	-5	38	-8	
0.977500	-13	-4	30	-3	
0.978000	-13	-5	18	2	
0.978500	-11	-5	6	4	
0.979000	-11	-5	-6	4	
0.979500	-11	-4	-16	5	
0.980000	-12	-4	-21	8	
0.980500	-13	-4	-24	14	
0.981000	-12	-3	-26	21	
0.981500	-11	-4	-29	29	
0.982000	-10	-3	-31	35	
0.982500	-9	-3	-33	40	
0.983000	-9	-3	-33	42	
0.983500	-10	-3	-31	41	
0.984000	-12	-3	-26	35	
0.984500	-15	-2	-17	27	
0.985000	-17	-1	-7	19	
0.985500	-18	-1	2	10	
0.986000	-20	-1	7	2	
0.986500	-20	-1	10	-8	
0.987000	-21	-1	12	-18	
0.987500	-24	-1	13	-30	
0.988000	-26	-1	14	-42	
0.988500	-29	0	15	-51	
0.989000	-29	-1	14	-58	
0.989500	-29	-2	12	-60	
0.990000	-27	-4	10	-59	
0.990500	-25	-5	6	-55	
0.991000	-23	-5	4	-50	
0.991500	-23	-5	2	-45	
0.992000	-22	-5	0	-42	
0.992500	-21	-6	0	-37	
0.993000	-20	-8	0	-30	
0.993500	-18	-10	0	-22	
0.994000	-14	-11	-1	-13	
0.994500	-12	-10	-2	-4	
0.995000	-10	-8	-3	5	
0.995500	-10	-5	-3	15	
0.996000	-11	-2	-3	23	
0.996500	-12	0	-2	30	
0.997000	-12	0	-4	33	
0.997500	-11	-1	-5	35	
0.998000	-9	-2	-9	38	
0.998500	-7	-4	-11	42	
0.999000	-6	-3	-13	47	
0.999500	-7	-3	-15	50	
1.000000	-8	-3	-15	50	
1.000500	-9	-3	-13	44	
1.001000	-12	-3	-10	37	
1.001500	-15	-3	-7	26	
1.002000	-17	-3	-3	16	
1.002500	-19	-3	0	5	
1.003000	-21	-2	4	-6	
1.003500	-23	-2	5	-17	
1.004000	-25	-2	7	-27	
1.004500	-26	-1	9	-35	
1.005000	-27	-1	11	-41	
1.005500	-28	-1	13	-46	
1.006000	-27	-1	13	-47	
1.006500	-26	-1	11	-44	
1.007000	-25	-1	9	-39	
1.007500	-23	-2	7	-33	
1.008000	-21	-2	6	-28	
1.008500	-20	-3	6	-24	
1.009000	-19	-3	5	-20	
1.009500	-18	-3	4	-17	
1.010000	-16	-4	2	-11	
1.010500	-15	-5	0	-6	
1.011000	-13	-6	-2	0	
1.011500	-12	-5	-4	6	
1.012000	-11	-6	-5	11	
1.012500	-11	-5	-7	16	
1.013000	-10	-5	-8	19	
1.013500	-10	-4	-8	22	
1.014000	-9	-4	-9	25	
1.014500	-8	-5	-11	29	
1.015000	-7	-5	-13	35	
1.015500	-5	-5	-16	39	
1.016000	-5	-6	-17	40	
1.016500	-5	-5	-18	38	
1.017000	-6	-5	-16	33	
1.017500	-9	-4	-13	26	
1.018000	-12	-4	-8	16	
1.018500	-15	-3	-4	6	
1.019000	-18	-2	0	-3	
1.019500	-22	-2	3	-12	
1.020000	-24	-2	5	-23	
1.020500	-25	-1	9	-31	
1.021000	-26	-1	10	-37	
1.021500	-28	0	12	-41	
1.022000	-29	0	14	-43	
1.022500	-29	-1	15	-43	
1.023000	-28	-1	15	-39	
1.023500	-26	-1	15	-36	
1.024000	-24	-2	12	-31	
1.024500	-22	-3	9	-29	
1.025000	-21	-3	7	-28	
1.025500	-20	-4	5	-27	
1.026000	-18	-5	2	-24	
1.026500	-17	-5	0	-19	
1.027000	-16	-5	0	-14	
1.027500	-14	-5	1	-9	
1.028000	-13	-5	0	-4	
1.028500	-13	-6	-1	0	
1.029000	-12	-6	-2	4	
1.029500	-11	-5	-4	6	
1.030000	-11	-5	-5	8	
1.030500	-10	-4	-6	12	
1.031000	-9	-5	-8	17	
1.031500	-7	-6	-10	23	
1.032000	-5	-7	-13	30	
1.032500	-5	-8	-14	34	
1.033000	-5	-8	-14	35	
1.033500	-7	-8	-13	34	
1.034000	-9	-8	-10	28	
1.034500	-13	-6	-7	21	
1.035000	-16	-5	-3	14	
1.035500	-18	-3	2	9	
1.036000	-21	-3	7	4	
1.036500	-23	-2	13	-4	
1.037000	-25	-2	17	-10	
1.037500	-27	-2	20	-16	
1.038000	-29	-2	22	-23	
1.038500	-31	-2	24	-31	
1.039000	-32	-2	25	-41	
1.039500	-32	-1	17	-48	
1.040000	-30	-2	6	-54	
1.040500	-27	-3	-7	-52	
1.041000	-25	-3	-14	-46	
1.041500	-23	-2	-18	-35	
1.042000	-22	-3	-16	-24	
1.042500	-21	-4	-14	-16	
1.043000	-18	-4	-12	-10	
1.043500	-16	-4	-11	-6	
1.044000	-15	-5	-9	0	
1.044500	-13	-4	-10	4	
1.045000	-12	-4	-11	9	
1.045500	-12	-3	-12	13	
1.046000	-11	-3	-12	17	
1.046500	-11	-2	-12	20	
1.047000	-12	-3	-11	22	
1.047500	-10	-4	-13	24	
1.048000	-8	-6	-15	28	
1.048500	-7	-7	-17	32	
1.049000	-6	-7	-18	34	
1.049500	-5	-7	-18	34	
1.050000	-6	-7	-19	30	
1.050500	-8	-6	-18	23	
1.051000	-11	-5	-16	14	
1.051500	-14	-4	-13	4	
1.052000	-16	-3	-9	-5	
1.052500	-19	-2	-5	-15	
1.053000	-20	-2	-1	-23	
1.053500	-22	-2	2	-31	
1.054000	-23	-2	4	-39	
1.054500	-24	-3	6	-47	
1.055000	-26	-3	8	-53	
1.055500	-27	-4	9	-56	
1.056000	-27	-4	10	-56	
1.056500	-25	-5	9	-50	
1.057000	-23	-5	7	-42	
1.057500	-22	-5	6	-30	
1.058000	-21	-3	8	-20	
1.058500	-21	-2	10	-12	
1.059000	-21	-1	14	-4	
1.059500	-20	-1	16	1	
1.060000	-19	-1	16	6	
1.060500	-18	0	11	10	
1.061000	-16	0	7	12	
1.061500	-14	-1	3	14	
1.062000	-13	-2	1	16	
1.062500	-12	-1	1	16	
1.063000	-12	-1	-1	16	
1.063500	-12	-1	-2	17	
1.064000	-12	-1	-4	19	
1.064500	-10	-2	-7	23	
1.065000	-7	-3	-12	29	
1.065500	-6	-5	-15	34	
1.066000	-7	-5	-17	37	
1.066500	-8	-7	-17	36	
1.067000	-9	-7	-16	33	
1.067500	-11	-7	-14	25	
1.068000	-12	-6	-10	16	
1.068500	-15	-4	-5	7	
1.069000	-17	-4	-1	-3	
1.069500	-20	-2	9	-11	
1.070000	-23	-1	20	-21	
1.070500	-25	0	35	-30	
1.071000	-27	0	45	-36	
1.071500	-29	0	54	-43	
1.072000	-31	0	56	-48	
1.072500	-31	1	55	-53	
1.073000	-30	1	48	-53	
1.073500	-27	0	39	-49	
1.074000	-25	0	26	-40	
1.074500	-23	-1	13	-31	
1.075000	-22	-2	3	-21	
1.075500	-21	-2	-5	-14	
1.076000	-19	-2	-11	-8	
1.076500	-16	-2	-15	-3	
1.077000	-14	-3	-18	0	
1.077500	-13	-3	-21	3	
1.078000	-12	-4	-22	5	
1.078500	-12	-5	-22	6	
1.079000	-12	-5	-22	8	
1.079500	-11	-6	-19	10	
1.080000	-11	-6	-16	11	
1.080500	-10	-5	-13	14	
1.081000	-8	-6	-12	17	
1.081500	-6	-7	-15	24	
1.082000	-3	-7	-18	30	
1.082500	-3	-8	-22	35	
1.083000	-3	-8	-24	36	
1.083500	-4	-8	-24	35	
1.084000	-6	-8	-21	29	
1.084500	-9	-8	-17	21	
1.085000	-12	-7	-13	12	
1.085500	-15	-6	-7	5	
1.086000	-19	-4	-2	1	
1.086500	-21	-3	4	-5	
1.087000	-23	-2	8	-11	
1.087500	-25	-1	12	-19	
1.088000	-27	-1	15	-28	
1.088500	-28	-2	16	-38	
1.089000	-27	-3	17	-45	
1.089500	-26	-5	16	-48	
1.090000	-24	-5	15	-45	
1.090500	-22	-5	12	-41	
1.091000	-21	-3	10	-36	
1.091500	-20	-1	9	-32	
1.092000	-20	0	8	-28	
1.092500	-20	-1	6	-22	
1.093000	-18	-1	4	-16	
1.093500	-18	-2	3	-8	
1.094000	-17	-2	1	0	
1.094500	-15	-4	-1	6	
1.095000	-14	-5	-4	10	
1.095500	-13	-5	-5	13	
1.096000	-12	-5	-5	14	
1.096500	-11	-5	-6	17	
1.097000	-10	-5	-7	22	
1.097500	-8	-5	-9	27	
1.098000	-6	-5	-12	33	
1.098500	-4	-5	-16	40	
1.099000	-3	-5	-19	46	
1.099500	-3	-6	-20	47	
1.100000	-5	-5	-19	45	
1.100500	-7	-5	-17	39	
1.101000	-9	-3	-13	30	
1.101500	-11	-3	-11	20	
1.102000	-12	-2	-6	11	
1.102500	-15	-3	-2	3	
1.103000	-18	-3	2	-7	
1.103500	-21	-2	6	-17	
1.104000	-24	-2	9	-26	
1.104500	-26	-1	12	-33	
1.105000	-29	0	15	-40	
1.105500	-28	0	17	-44	
1.106000	-28	0	18	-48	
1.106500	-26	-1	17	-47	
1.107000	-24	-2	15	-43	
1.107500	-23	-3	12	-37	
1.108000	-21	-4	10	-31	
1.108500	-21	-4	8	-26	
1.109000	-20	-3	8	-22	
1.109500	-19	-3	7	-19	
1.110000	-18	-3	6	-16	
1.110500	-17	-3	5	-11	
1.111000	-16	-4	3	-8	
1.111500	-16	-5	1	-3	
1.112000	-15	-5	-1	1	
1.112500	-13	-6	-2	4	
1.113000	-12	-7	-3	8	
1.113500	-11	-6	-4	12	
1.114000	-10	-6	-6	18	
1.114500	-6	-7	-9	23	
1.115000	-3	-9	-13	32	
1.115500	-1	-9	-16	39	
1.116000	-1	-9	-19	42	
1.116500	-2	-8	-20	40	
1.117000	-5	-5	-18	35	
1.117500	-9	-3	-15	26	
1.118000	-12	-1	-12	16	
1.118500	-14	0	-8	8	
1.119000	-16	1	-5	1	
1.119500	-18	0	-1	-7	
1.120000	-21	-2	2	-17	
1.120500	-23	-2	6	-28	
1.121000	-25	-3	9	-36	
1.121500	-26	-2	12	-43	
1.122000	-29	-2	15	-47	
1.122500	-29	-1	16	-49	
1.123000	-29	-2	15	-47	
1.123500	-27	-3	13	-40	
1.124000	-25	-3	10	-31	
1.124500	-23	-3	8	-23	
1.125000	-21	-2	8	-17	
1.125500	-20	-3	7	-13	
1.126000	-18	-4	6	-8	
1.126500	-17	-5	6	-2	
1.127000	-17	-5	5	4	
1.127500	-15	-5	5	9	
1.128000	-13	-5	4	16	
1.128500	-13	-6	3	23	
1.129000	-11	-7	3	28	
1.129500	-11	-7	3	31	
1.130000	-10	-7	3	31	
1.130500	-10	-6	3	30	
1.131000	-7	-7	1	29	
1.131500	-6	-7	-2	27	
1.132000	-4	-7	-10	24	
1.132500	-4	-7	-21	17	
1.133000	-5	-5	-34	10	
1.133500	-8	-6	-42	3	
1.134000	-10	-6	-44	-2	
1.134500	-13	-6	-38	-6	
1.135000	-15	-5	-30	-10	
1.135500	-16	-5	-22	-14	
1.136000	-17	-5	-16	-19	
1.136500	-19	-5	-12	-26	
1.137000	-23	-4	-5	-33	
1.137500	-25	-2	1	-37	
1.138000	-28	0	9	-43	
1.138500	-30	2	15	-47	
1.139000	-31	2	19	-52	
1.139500	-31	1	18	-53	
1.140000	-28	0	16	-48	
1.140500	-26	-1	15	-36	
1.141000	-24	-1	15	-24	
1.141500	-22	-1	16	-14	
1.142000	-22	-1	15	-8	
1.142500	-18	-1	13	-4	
1.143000	-16	-1	9	1	
1.143500	-14	-3	4	6	
1.144000	-12	-4	-1	11	
1.144500	-10	-6	-5	16	
1.145000	-9	-7	-7	20	
1.145500	-8	-8	-8	22	
1.146000	-9	-8	-8	23	
1.146500	-8	-7	-8	23	
1.147000	-8	-6	-9	25	
1.147500	-7	-5	-9	28	
1.148000	-6	-6	-12	37	
1.148500	-4	-6	-15	45	
1.149000	-3	-6	-18	54	
1.149500	-3	-6	-19	58	
1.150000	-5	-7	-18	57	
1.150500	-6	-7	-15	53	
1.151000	-9	-6	-11	46	
1.151500	-12	-5	-7	35	
1.152000	-14	-5	-3	24	
1.152500	-17	-4	0	13	
1.153000	-20	-3	2	2	
1.153500	-22	-2	5	-8	
1.154000	-25	-1	8	-20	
1.154500	-26	-1	12	-31	
1.155000	-28	1	16	-40	
1.155500	-31	3	19	-49	
1.156000	-31	4	20	-55	
1.156500	-30	3	19	-55	
1.157000	-27	1	17	-50	
1.157500	-25	-1	15	-43	
1.158000	-23	-2	12	-35	
1.158500	-21	-2	11	-29	
1.159000	-20	-3	7	-22	
1.159500	-21	-3	5	-17	
1.160000	-20	-2	3	-10	
1.160500	-18	-2	1	-5	
1.161000	-16	-2	-1	-1	
1.161500	-14	-2	-2	4	
1.162000	-14	-2	-4	8	
1.162500	-12	-3	-4	13	
1.163000	-11	-3	-5	17	
1.163500	-12	-4	-7	22	
1.164000	-11	-4	-8	26	
1.164500	-9	-5	-10	31	
1.165000	-7	-5	-14	38	
1.165500	-5	-5	-16	43	
1.166000	-4	-6	-16	46	
1.166500	-4	-6	-17	44	
1.167000	-5	-5	-15	38	
1.167500	-9	-5	-13	28	
1.168000	-12	-5	-9	15	
1.168500	-16	-6	-6	4	
1.169000	-18	-5	-2	-7	
1.169500	-20	-4	4	-17	
1.170000	-23	-3	9	-28	
1.170500	-26	-3	12	-38	
1.171000	-28	-3	15	-47	
1.171500	-30	-2	17	-55	
1.172000	-32	-2	19	-61	
1.172500	-31	-1	21	-67	
1.173000	-29	-2	20	-64	
1.173500	-27	-1	18	-58	
1.174000	-25	-1	14	-49	
1.174500	-24	-2	16	-42	
1.175000	-22	-2	21	-37	
1.175500	-20	-3	28	-32	
1.176000	-18	-4	34	-26	
1.176500	-17	-4	38	-18	
1.177000	-15	-3	38	-10	
1.177500	-14	-2	34	-2	
1.178000	-14	-3	25	5	
1.178500	-13	-3	15	12	
1.179000	-13	-4	4	19	
1.179500	-11	-3	-8	25	
1.180000	-9	-4	-18	30	
1.180500	-7	-4	-26	38	
1.181000	-6	-5	-31	44	
1.181500	-5	-6	-36	52	
1.182000	-3	-6	-39	59	
1.182500	-3	-6	-40	64	
1.183000	-4	-5	-40	62	
1.183500	-5	-5	-38	57	
1.184000	-7	-5	-35	47	
1.184500	-9	-4	-28	36	
1.185000	-12	-3	-20	24	
1.185500	-15	-2	-11	12	
1.186000	-17	-1	-4	2	
1.186500	-19	0	3	-9	
1.187000	-21	0	7	-19	
1.187500	-22	-1	8	-28	
1.188000	-24	-2	10	-38	
1.188500	-25	-2	12	-46	
1.189000	-26	-3	13	-53	
1.189500	-26	-4	14	-55	
1.190000	-24	-5	13	-51	
1.190500	-22	-5	11	-44	
1.191000	-20	-6	9	-38	
1.191500	-19	-5	8	-32	
1.192000	-19	-3	6	-28	
1.192500	-18	-2	4	-24	
1.193000	-17	-2	3	-18	
1.193500	-15	-2	1	-13	
1.194000	-14	-2	0	-6	
1.194500	-12	-3	-2	-1	
1.195000	-11	-4	-4	5	
1.195500	-9	-5	-7	10	
1.196000	-9	-5	-9	15	
1.196500	-9	-5	-9	20	
1.197000	-8	-5	-9	23	
1.197500	-6	-5	-10	24	
1.198000	-5	-6	-12	28	
1.198500	-4	-7	-13	33	
1.199000	-4	-7	-16	38	
1.199500	-4	-8	-17	40	
1.200000	-5	-7	-16	39	
1.200500	-7	-7	-14	35	
1.201000	-10	-6	-12	29	
1.201500	-14	-5	-9	20	
1.202000	-16	-4	-5	11	
1.202500	-18	-3	-1	4	
1.203000	-21	-2	3	-5	
1.203500	-23	-2	6	-16	
1.204000	-24	-1	9	-24	
1.204500	-25	-2	10	-30	
1.205000	-27	-2	13	-37	
1.205500	-29	-2	16	-41	
1.206000	-30	-2	18	-46	
1.206500	-29	-2	20	-46	
1.207000	-26	-4	18	-43	
1.207500	-23	-5	15	-38	
1.208000	-21	-4	12	-32	
1.208500	-20	-5	10	-27	
1.209000	-19	-5	8	-22	
1.209500	-17	-4	6	-18	
1.210000	-16	-5	3	-14	
1.210500	-14	-5	1	-11	
1.211000	-13	-5	-1	-9	
1.211500	-12	-5	-4	-6	
1.212000	-12	-6	-5	-2	
1.212500	-11	-6	-6	1	
1.213000	-11	-6	-7	4	
1.213500	-10	-5	-8	6	
1.214000	-8	-4	-8	9	
1.214500	-7	-5	-10	14	
1.215000	-5	-5	-11	21	
1.215500	-4	-5	-15	29	
1.216000	-3	-5	-17	36	
1.216500	-4	-4	-18	38	
1.217000	-5	-4	-17	36	
1.217500	-6	-4	-15	28	
1.218000	-9	-4	-12	17	
1.218500	-12	-4	-9	7	
1.219000	-14	-5	-7	-3	
1.219500	-16	-4	-5	-12	
1.220000	-18	-4	-3	-20	
1.220500	-21	-3	0	-28	
1.221000	-24	-3	3	-34	
1.221500	-26	-3	6	-42	
1.222000	-28	-3	9	-49	
1.222500	-29	-2	11	-54	
1.223000	-28	-3	12	-52	
1.223500	-27	-4	10	-47	
1.224000	-25	-5	6	-37	
1.224500	-24	-5	4	-29	
1.225000	-22	-5	3	-20	
1.225500	-20	-5	5	-13	
1.226000	-18	-5	8	-7	
1.226500	-18	-5	11	0	
1.227000	-16	-5	12	5	
1.227500	-15	-6	11	10	
1.228000	-14	-6	6	16	
1.228500	-13	-6	3	21	
1.229000	-13	-5	1	26	
1.229500	-11	-5	-1	29	
1.230000	-11	-5	-1	31	
1.230500	-10	-6	-3	34	
1.231000	-8	-6	-4	36	
1.231500	-5	-7	-6	41	
1.232000	-3	-9	-8	44	
1.232500	-2	-9	-8	46	
1.233000	-4	-9	-7	42	
1.233500	-6	-8	-4	37	
1.234000	-9	-7	-2	30	
1.234500	-11	-4	2	24	
1.235000	-14	-2	5	15	
1.235500	-16	0	9	5	
1.236000	-18	1	12	-4	
1.236500	-21	1	14	-19	
1.237000	-23	2	10	-34	
1.237500	-25	1	4	-50	
1.238000	-28	1	-2	-64	
1.238500	-32	1	-5	-74	
1.239000	-34	1	-1	-79	
1.239500	-34	0	4	-76	
1.240000	-30	1	9	-68	
1.240500	-27	1	10	-55	
1.241000	-24	1	10	-42	
1.241500	-22	1	8	-33	
1.242000	-21	1	6	-26	
1.242500	-19	1	4	-22	
1.243000	-18	1	2	-17	
1.243500	-17	-1	0	-12	
1.244000	-15	-3	-2	-5	
1.244500	-14	-4	-6	1	
1.245000	-13	-5	-9	6	
1.245500	-12	-5	-11	10	
1.246000	-12	-6	-13	14	
1.246500	-10	-7	-13	17	
1.247000	-9	-6	-14	20	
1.247500	-7	-7	-15	24	
1.248000	-5	-9	-18	31	
1.248500	-4	-10	-21	38	
1.249000	-2	-10	-23	42	
1.249500	-2	-9	-23	42	
1.250000	-3	-8	-24	39	
1.250500	-5	-6	-22	32	
1.251000	-8	-5	-18	23	
1.251500	-11	-4	-13	12	
1.252000	-14	-3	-6	2	
1.252500	-17	-1	-2	-6	
1.253000	-20	-1	4	-13	
1.253500	-24	-1	7	-19	
1.254000	-26	0	10	-24	
1.254500	-28	0	14	-28	
1.255000	-30	1	16	-32	
1.255500	-31	2	18	-35	
1.256000	-31	1	19	-36	
1.256500	-30	1	19	-29	
1.257000	-27	0	16	-19	
1.257500	-24	-1	15	-11	
1.258000	-22	-1	12	-6	
1.258500	-20	-1	10	-5	
1.259000	-18	-2	8	-3	
1.259500	-17	-3	6	-1	
1.260000	-16	-4	4	3	
1.260500	-15	-5	2	6	
1.261000	-14	-5	0	8	
1.261500	-13	-6	-1	12	
1.262000	-12	-5	-2	15	
1.262500	-11	-5	-3	17	
1.263000	-11	-5	-4	18	
1.263500	-11	-5	-4	19	
1.264000	-10	-5	-6	21	
1.264500	-9	-5	-6	25	
1.265000	-6	-6	-8	31	
1.265500	-5	-6	-12	37	
1.266000	-5	-6	-14	42	
1.266500	-5	-6	-16	44	
1.267000	-6	-6	-15	42	
1.267500	-9	-5	-12	36	
1.268000	-11	-4	-8	27	
1.268500	-14	-3	-5	18	
1.269000	-16	-3	-2	10	
1.269500	-19	-2	3	3	
1.270000	-22	0	8	-8	
1.270500	-25	0	13	-19	
1.271000	-28	1	15	-29	
1.271500	-30	2	15	-40	
1.272000	-32	3	13	-49	
1.272500	-32	2	13	-57	
1.273000	-31	1	12	-58	
1.273500	-29	1	11	-54	
1.274000	-27	0	9	-48	
1.274500	-24	0	7	-42	
1.275000	-24	-1	5	-37	
1.275500	-23	-3	3	-33	
1.276000	-21	-3	2	-30	
1.276500	-19	-4	0	-27	
1.277000	-17	-5	-1	-24	
1.277500	-15	-6	-2	-20	
1.278000	-13	-7	-4	-16	
1.278500	-12	-8	-6	-11	
1.279000	-12	-8	-8	-6	
1.279500	-11	-7	-9	-3	
1.280000	-11	-6	-8	3	
1.280500	-10	-5	-4	9	
1.281000	-9	-5	-2	15	
1.281500	-7	-6	-4	25	
1.282000	-4	-7	-5	34	
1.282500	-3	-8	-5	42	
1.283000	-3	-9	1	44	
1.283500	-4	-9	8	42	
1.284000	-6	-10	15	35	
1.284500	-9	-9	19	26	
1.285000	-12	-7	20	14	
1.285500	-15	-5	17	4	
1.286000	-18	-3	13	-5	
1.286500	-21	-1	7	-13	
1.287000	-23	-1	2	-18	
1.287500	-25	-1	-3	-23	
1.288000	-26	-2	-5	-29	
1.288500	-27	-3	-6	-36	
1.289000	-28	-3	-6	-43	
1.289500	-28	-4	-7	-48	
1.290000	-26	-4	-9	-47	
1.290500	-25	-4	-11	-41	
1.291000	-23	-3	-10	-33	
1.291500	-23	-3	-8	-24	
1.292000	-23	-2	-6	-18	
1.292500	-21	-2	-3	-13	
1.293000	-19	-1	-2	-8	
1.293500	-16	-2	-2	-4	
1.294000	-14	-3	-3	2	
1.294500	-12	-4	-4	8	
1.295000	-12	-4	-4	16	
1.295500	-12	-3	-3	22	
1.296000	-12	-3	-4	25	
1.296500	-11	-3	-4	27	
1.297000	-11	-4	-6	30	
1.297500	-10	-5	-7	34	
1.298000	-8	-6	-11	39	
1.298500	-7	-6	-13	45	
1.299000	-5	-7	-17	48	
1.299500	-4	-7	-18	50	
1.300000	-4	-7	-19	47	
1.300500	-5	-6	-17	41	
1.301000	-9	-4	-14	34	
1.301500	-12	-2	-9	24	
1.302000	-14	-1	-3	15	
1.302500	-18	0	2	6	
1.303000	-20	0	6	-6	
1.303500	-22	0	9	-18	
1.304000	-24	-1	12	-32	
1.304500	-26	-1	14	-43	
1.305000	-27	-1	17	-54	
1.305500	-29	-1	20	-63	
1.306000	-29	-1	22	-70	
1.306500	-29	-1	22	-71	
1.307000	-28	-2	21	-67	
1.307500	-25	-3	18	-60	
1.308000	-23	-4	14	-52	
1.308500	-22	-5	11	-44	
1.309000	-20	-5	9	-37	
1.309500	-19	-6	6	-29	
1.310000	-17	-6	3	-20	
1.310500	-15	-5	-1	-11	
1.311000	-14	-4	-4	-3	
1.311500	-12	-4	-8	6	
1.312000	-11	-3	-10	13	
1.312500	-10	-2	-11	18	
1.313000	-9	-2	-13	24	
1.313500	-9	-3	-14	28	
1.314000	-7	-4	-15	31	
1.314500	-4	-5	-19	34	
1.315000	-2	-6	-22	37	
1.315500	-1	-8	-24	39	
1.316000	0	-9	-26	41	
1.316500	0	-8	-24	39	
1.317000	-2	-8	-22	34	
1.317500	-6	-8	-20	25	
1.318000	-10	-8	-15	17	
1.318500	-12	-8	-11	12	
1.319000	-15	-7	-6	7	
1.319500	-17	-7	-2	2	
1.320000	-19	-6	2	-6	
1.320500	-21	-7	6	-15	
1.321000	-22	-7	9	-24	
1.321500	-24	-7	12	-30	
1.322000	-26	-7	16	-33	
1.322500	-28	-6	19	-35	
1.323000	-29	-4	20	-36	
1.323500	-28	-3	19	-35	
1.324000	-26	-2	18	-35	
1.324500	-24	-2	16	-34	
1.325000	-23	-2	13	-32	
1.325500	-21	-1	7	-28	
1.326000	-20	-2	1	-24	
1.326500	-19	-2	-2	-18	
1.327000	-19	-2	-4	-12	
1.327500	-18	-2	-5	-6	
1.328000	-16	-1	-5	1	
1.328500	-15	0	-5	5	
1.329000	-13	1	-4	8	
1.329500	-11	0	-5	9	
1.330000	-9	-2	-6	10	
1.330500	-7	-3	-8	12	
1.331000	-6	-5	-12	16	
1.331500	-5	-6	-15	23	
1.332000	-3	-8	-20	31	
1.332500	-3	-8	-22	36	
1.333000	-3	-8	-22	38	
1.333500	-5	-8	-20	37	
1.334000	-7	-8	-18	29	
1.334500	-9	-6	-15	19	
1.335000	-11	-5	-10	7	
1.335500	-14	-4	-5	-1	
1.336000	-17	-4	0	-8	
1.336500	-20	-3	4	-16	
1.337000	-22	-3	8	-22	
1.337500	-25	-2	11	-27	
1.338000	-27	0	16	-33	
1.338500	-30	1	18	-39	
1.339000	-31	2	20	-46	
1.339500	-31	3	19	-50	
1.340000	-29	2	16	-50	
1.340500	-27	1	12	-44	
1.341000	-24	0	9	-37	
1.341500	-22	-1	4	-29	
1.342000	-20	-2	-2	-22	
1.342500	-18	-3	-7	-16	
1.343000	-16	-4	-12	-10	
1.343500	-14	-6	-16	-5	
1.344000	-13	-8	-18	-1	
1.344500	-11	-9	-18	2	
1.345000	-10	-9	-17	7	
1.345500	-10	-8	-13	11	
1.346000	-10	-8	-10	14	
1.346500	-10	-8	-7	17	
1.347000	-10	-9	-5	17	
1.347500	-7	-10	-4	16	
1.348000	-5	-12	-6	17	
1.348500	-4	-13	-6	18	
1.349000	-3	-12	-2	19	
1.349500	-4	-11	4	19	
1.350000	-5	-9	10	17	
1.350500	-7	-8	8	12	
1.351000	-9	-7	3	8	
1.351500	-12	-6	-2	6	
1.352000	-16	-3	-2	10	
1.352500	-20	1	0	19	
1.353000	-24	4	6	22	
1.353500	-27	5	11	17	
1.354000	-29	5	17	6	
1.354500	-32	4	22	-5	
1.355000	-33	4	24	-17	
1.355500	-34	3	26	-28	
1.356000	-33	3	25	-35	
1.356500	-31	3	23	-33	
1.357000	-28	2	21	-26	
1.357500	-25	1	19	-16	
1.358000	-23	1	19	-8	
1.358500	-22	0	21	-3	
1.359000	-21	-1	23	1	
1.359500	-20	-1	25	3	
1.360000	-20	-1	26	4	
1.360500	-19	-2	25	7	
1.361000	-17	-2	23	11	
1.361500	-16	-2	18	15	
1.362000	-15	-2	14	20	
1.362500	-12	-2	11	21	
1.363000	-11	-3	9	20	
1.363500	-10	-4	6	17	
1.364000	-10	-5	3	10	
1.364500	-9	-4	-1	7	
1.365000	-8	-5	-5	9	
1.365500	-6	-6	-6	16	
1.366000	-6	-6	-4	23	
1.366500	-6	-6	-4	28	
1.367000	-6	-6	-4	29	
1.367500	-8	-5	-8	25	
1.368000	-12	-5	-13	18	
1.368500	-14	-5	-17	9	
1.369000	-17	-4	-20	0	
1.369500	-20	-3	-20	-8	
1.370000	-22	-2	-17	-19	
1.370500	-23	-2	-14	-28	
1.371000	-24	-1	-12	-34	
1.371500	-26	-2	-9	-42	
1.372000	-28	-3	-6	-47	
1.372500	-28	-4	-2	-53	
1.373000	-28	-5	2	-54	
1.373500	-26	-5	5	-53	
1.374000	-24	-4	7	-48	
1.374500	-21	-3	5	-43	
1.375000	-19	-2	3	-39	
1.375500	-18	-2	0	-35	
1.376000	-17	-2	-1	-32	
1.376500	-16	-2	-1	-27	
1.377000	-16	-2	0	-23	
1.377500	-15	-2	0	-21	
1.378000	-14	-2	-1	-19	
1.378500	-14	-3	-2	-17	
1.379000	-13	-4	-3	-14	
1.379500	-12	-3	-5	-12	
1.380000	-11	-3	-5	-11	
1.380500	-11	-3	-7	-8	
1.381000	-9	-4	-10	-3	
1.381500	-7	-4	-13	5	
1.382000	-5	-5	-18	13	
1.382500	-4	-5	-21	21	
1.383000	-4	-5	-23	26	
1.383500	-4	-5	-24	28	
1.384000	-5	-5	-23	26	
1.384500	-8	-3	-20	20	
1.385000	-12	-2	-15	11	
1.385500	-14	-2	-11	5	
1.386000	-17	-2	-7	3	
1.386500	-18	-2	-5	-1	
1.387000	-20	-1	-2	-5	
1.387500	-22	-1	1	-12	
1.388000	-23	-1	5	-20	
1.388500	-25	0	9	-25	
1.389000	-25	0	12	-31	
1.389500	-27	0	14	-33	
1.390000	-25	-1	14	-30	
1.390500	-23	-2	13	-27	
1.391000	-22	-3	11	-24	
1.391500	-21	-5	8	-22	
1.392000	-21	-7	7	-20	
1.392500	-19	-7	4	-15	
1.393000	-17	-7	4	-10	
1.393500	-16	-7	2	-6	
1.394000	-14	-7	1	-2	
1.394500	-14	-7	-1	1	
1.395000	-12	-8	-2	5	
1.395500	-11	-9	-1	9	
1.396000	-10	-10	1	12	
1.396500	-10	-10	1	13	
1.397000	-11	-11	2	16	
1.397500	-10	-12	1	21	
1.398000	-8	-12	-1	31	
1.398500	-4	-12	-5	41	
1.399000	-2	-11	-10	51	
1.399500	-2	-10	-12	57	
1.400000	-3	-9	-11	58	
1.400500	-5	-8	-8	53	
1.401000	-8	-7	-6	45	
1.401500	-11	-6	-4	31	
1.402000	-13	-5	-2	17	
1.402500	-14	-5	-1	7	
1.403000	-16	-4	3	-1	
1.403500	-18	-3	7	-7	
1.404000	-21	-1	13	-16	
1.404500	-24	2	17	-26	
1.405000	-29	5	17	-39	
1.405500	-32	8	14	-50	
1.406000	-35	8	10	-59	
1.406500	-34	8	7	-63	
1.407000	-32	6	3	-63	
1.407500	-28	4	0	-60	
1.408000	-25	3	-1	-54	
1.408500	-23	1	-2	-48	
1.409000	-21	0	1	-36	
1.409500	-20	-1	2	-26	
1.410000	-18	-2	3	-18	
1.410500	-16	-3	2	-11	
1.411000	-14	-4	0	-7	
1.411500	-14	-4	-1	3	
1.412000	-15	-4	-3	12	
1.412500	-14	-4	-6	20	
1.413000	-12	-4	-7	24	
1.413500	-11	-4	-8	24	
1.414000	-9	-4	-9	23	
1.414500	-7	-5	-11	22	
1.415000	-5	-7	-13	25	
1.415500	-4	-7	-16	28	
1.416000	-4	-8	-18	30	
1.416500	-5	-8	-19	29	
1.417000	-6	-8	-18	24	
1.417500	-8	-7	-17	17	
1.418000	-11	-6	-13	7	
1.418500	-15	-3	-9	-3	
1.419000	-18	-2	-4	-12	
1.419500	-22	0	2	-18	
1.420000	-24	1	5	-27	
1.420500	-26	1	8	-36	
1.421000	-26	0	10	-44	
1.421500	-27	-1	12	-52	
1.422000	-29	-1	14	-59	
1.422500	-28	-3	15	-63	
1.423000	-27	-4	15	-61	
1.423500	-26	-4	13	-54	
1.424000	-24	-4	11	-42	
1.424500	-23	-3	7	-31	
1.425000	-22	-2	4	-21	
1.425500	-22	-2	3	-13	
1.426000	-21	-3	1	-8	
1.426500	-19	-4	0	-2	
1.427000	-18	-5	-2	4	
1.427500	-15	-6	-3	10	
1.428000	-14	-8	-5	17	
1.428500	-13	-7	-7	23	
1.429000	-12	-6	-8	28	
1.429500	-13	-4	-7	30	
1.430000	-12	-3	-6	31	
1.430500	-11	-3	-5	32	
1.431000	-10	-5	-4	34	
1.431500	-8	-5	-3	39	
1.432000	-6	-6	1	43	
1.432500	-6	-5	3	44	
1.433000	-7	-4	2	42	
1.433500	-9	-4	-3	39	
1.434000	-10	-3	-11	37	
1.434500	-12	-2	-15	33	
1.435000	-14	-1	-15	28	
1.435500	-17	-1	-13	18	
1.436000	-19	0	-9	7	
1.436500	-22	0	-5	-6	
1.437000	-24	-1	-1	-18	
1.437500	-24	-2	3	-27	
1.438000	-25	-2	7	-33	
1.438500	-27	-2	13	-39	
1.439000	-29	-1	21	-46	
1.439500	-29	0	25	-50	
1.440000	-28	0	26	-50	
1.440500	-26	-1	24	-48	
1.441000	-25	-2	21	-44	
1.441500	-24	-3	19	-42	
1.442000	-23	-3	16	-39	
1.442500	-20	-3	14	-34	
1.443000	-18	-3	10	-28	
1.443500	-16	-4	7	-21	
1.444000	-15	-5	4	-13	
1.444500	-14	-5	3	-6	
1.445000	-13	-5	2	-1	
1.445500	-12	-5	0	4	
1.446000	-11	-5	-2	5	
1.446500	-11	-5	-4	6	
1.447000	-10	-6	-6	7	
1.447500	-9	-6	-8	11	
1.448000	-8	-7	-11	22	
1.448500	-6	-7	-11	35	
1.449000	-5	-8	-7	50	
1.449500	-2	-8	1	61	
1.450000	-2	-9	10	67	
1.450500	-4	-9	18	64	
1.451000	-6	-9	23	56	
1.451500	-9	-9	27	39	
1.452000	-12	-8	25	23	
1.452500	-14	-7	22	8	
1.453000	-16	-7	15	-5	
1.453500	-18	-8	10	-16	
1.454000	-21	-8	4	-26	
1.454500	-21	-6	1	-34	
1.455000	-23	-5	-2	-42	
1.455500	-25	-4	-5	-56	
1.456000	-26	-3	-8	-70	
1.456500	-28	-1	-12	-85	
1.457000	-29	1	-11	-95	
1.457500	-28	3	-9	-95	
1.458000	-28	3	-9	-85	
1.458500	-26	3	-11	-72	
1.459000	-24	3	-15	-60	
1.459500	-22	2	-19	-51	
1.460000	-20	1	-22	-43	
1.460500	-18	0	-21	-30	
1.461000	-17	-3	-18	-14	
1.461500	-17	-4	-12	4	
1.462000	-17	-5	-7	16	
1.462500	-15	-4	-3	22	
1.463000	-14	-5	-5	22	
1.463500	-11	-6	-8	18	
1.464000	-9	-8	-12	12	
1.464500	-7	-11	-13	9	
1.465000	-6	-12	-12	11	
1.465500	-6	-12	-9	14	
1.466000	-5	-11	-5	17	
1.466500	-6	-10	-2	20	
1.467000	-9	-9	2	24	
1.467500	-11	-9	4	27	
1.468000	-15	-8	9	24	
1.468500	-16	-7	13	19	
1.469000	-18	-5	16	8	
1.469500	-20	-4	18	-2	
1.470000	-22	-3	18	-14	
1.470500	-24	-3	19	-23	
1.471000	-27	-2	20	-29	
1.471500	-29	-2	22	-35	
1.472000	-30	-3	23	-41	
1.472500	-32	-2	22	-47	
1.473000	-32	1	13	-48	
1.473500	-31	3	3	-46	
1.474000	-29	4	-8	-41	
1.474500	-28	6	-16	-35	
1.475000	-26	6	-20	-32	
1.475500	-25	6	-16	-29	
1.476000	-23	4	-12	-26	
1.476500	-21	3	-7	-22	
1.477000	-19	0	-7	-19	
1.477500	-17	-1	-8	-14	
1.478000	-16	-2	-11	-8	
1.478500	-14	-3	-15	-3	
1.479000	-13	-3	-18	7	
1.479500	-12	-3	-19	20	
1.480000	-12	-3	-20	38	
1.480500	-12	-3	-19	48	
1.481000	-9	-3	-18	51	
1.481500	-6	-3	-19	48	
1.482000	-3	-3	-23	46	
1.482500	-3	-4	-26	44	
1.483000	-4	-4	-26	42	
1.483500	-6	-4	-25	39	
1.484000	-9	-4	-21	32	
1.484500	-12	-5	-15	24	
1.485000	-14	-4	-9	15	
1.485500	-16	-3	-3	6	
1.486000	-17	-3	1	1	
1.486500	-19	-2	3	-7	
1.487000	-22	-3	6	-14	
1.487500	-25	-3	10	-20	
1.488000	-26	-2	14	-25	
1.488500	-28	-1	16	-30	
1.489000	-30	-1	18	-34	
1.489500	-31	-1	19	-33	
1.490000	-30	-1	20	-30	
1.490500	-27	-2	18	-22	
1.491000	-24	-3	15	-14	
1.491500	-21	-3	12	-9	
1.492000	-20	-4	11	-5	
1.492500	-18	-4	9	-2	
1.493000	-18	-5	6	1	
1.493500	-16	-4	4	3	
1.494000	-15	-5	1	5	
1.494500	-13	-5	-1	6	
1.495000	-12	-5	-3	9	
1.495500	-11	-4	-4	12	
1.496000	-10	-4	-5	12	
1.496500	-10	-4	-7	14	
1.497000	-10	-4	-8	16	
1.497500	-8	-5	-9	19	
1.498000	-6	-7	-10	25	
1.498500	-4	-8	-14	32	
1.499000	-2	-8	-18	40	
1.499500	-3	-8	-21	44	
1.500000	-4	-8	-23	45	
1.500500	-5	-9	-21	41	
1.501000	-7	-8	-18	36	
1.501500	-11	-7	-15	27	
1.502000	-14	-7	-10	17	
1.502500	-16	-6	-6	8	
1.503000	-17	-6	-2	-5	
1.503500	-21	-5	2	-18	
1.504000	-24	-5	4	-29	
1.504500	-25	-4	5	-37	
1.505000	-27	-4	7	-44	
1.505500	-27	-3	10	-50	
1.506000	-28	-4	15	-54	
1.506500	-27	-4	19	-55	
1.507000	-24	-4	17	-53	
1.507500	-22	-4	9	-52	
1.508000	-20	-3	-11	-48	
1.508500	-19	-4	-31	-44	
1.509000	-19	-5	-48	-37	
1.509500	-19	-6	-53	-28	
1.510000	-19	-7	-53	-19	
1.510500	-18	-8	-49	-10	
1.511000	-17	-8	-45	-2	
1.511500	-15	-8	-40	6	
1.512000	-14	-8	-35	12	
1.512500	-13	-7	-30	15	
1.513000	-12	-8	-22	18	
1.513500	-11	-8	-13	21	
1.514000	-10	-8	-2	24	
1.514500	-9	-8	6	26	
1.515000	-7	-8	11	30	
1.515500	-5	-8	14	34	
1.516000	-5	-7	17	38	
1.516500	-6	-7	23	40	
1.517000	-7	-5	27	40	
1.517500	-10	-4	32	36	
1.518000	-14	-3	36	28	
1.518500	-16	-3	38	20	
1.519000	-18	-4	40	9	
1.519500	-20	-4	41	-1	
1.520000	-22	-3	42	-14	
1.520500	-24	-3	41	-26	
1.521000	-25	-3	39	-37	
1.521500	-27	-2	34	-50	
1.522000	-28	-1	23	-62	
1.522500	-30	-1	13	-71	
1.523000	-30	-1	3	-69	
1.523500	-29	-1	-2	-61	
1.524000	-26	-1	-4	-46	
1.524500	-24	-1	-4	-31	
1.525000	-21	-2	-1	-16	
1.525500	-19	-2	0	-6	
1.526000	-17	-2	0	0	
1.526500	-15	-3	-1	4	
1.527000	-15	-5	0	8	
1.527500	-15	-5	1	10	
1.528000	-14	-5	3	11	
1.528500	-13	-5	3	11	
1.529000	-11	-4	2	10	
1.529500	-10	-5	-1	8	
1.530000	-9	-7	-5	9	
1.530500	-8	-8	-9	9	
1.531000	-7	-10	-9	10	
1.531500	-6	-11	-6	14	
1.532000	-5	-11	0	19	
1.532500	-4	-11	7	25	
1.533000	-4	-11	15	27	
1.533500	-5	-11	20	26	
1.534000	-8	-11	21	19	
1.534500	-10	-11	19	12	
1.535000	-12	-11	15	5	
1.535500	-14	-10	9	-1	
1.536000	-16	-8	4	-5	
1.536500	-18	-7	1	-15	
1.537000	-20	-6	-3	-23	
1.537500	-22	-4	-2	-28	
1.538000	-24	-2	7	-32	
1.538500	-27	0	19	-33	
1.539000	-30	2	33	-37	
1.539500	-33	3	41	-40	
1.540000	-31	3	43	-41	
1.540500	-29	3	37	-36	
1.541000	-26	2	29	-29	
1.541500	-24	2	20	-19	
1.542000	-23	2	9	-11	
1.542500	-23	2	0	-4	
1.543000	-21	2	-10	3	
1.543500	-20	2	-19	9	
1.544000	-18	1	-26	18	
1.544500	-17	1	-35	27	
1.545000	-17	-1	-42	40	
1.545500	-16	-2	-46	48	
1.546000	-15	-2	-47	51	
1.546500	-14	-3	-45	51	
1.547000	-13	-3	-39	49	
1.547500	-12	-4	-34	47	
1.548000	-11	-5	-28	50	
1.548500	-8	-7	-23	55	
1.549000	-6	-8	-19	61	
1.549500	-5	-9	-14	64	
1.550000	-4	-10	-11	63	
1.550500	-6	-10	-8	57	
1.551000	-8	-9	-6	47	
1.551500	-11	-9	-3	30	
1.552000	-13	-7	2	13	
1.552500	-16	-6	7	-2	
1.553000	-19	-4	15	-18	
1.553500	-22	-3	16	-34	
1.554000	-25	-1	13	-49	
1.554500	-27	1	7	-61	
1.555000	-31	1	0	-71	
1.555500	-32	3	-4	-78	
1.556000	-32	2	-4	-80	
1.556500	-31	1	1	-74	
1.557000	-30	0	9	-65	
1.557500	-27	-1	14	-54	
1.558000	-25	-1	17	-44	
1.558500	-24	-1	17	-39	
1.559000	-22	-1	15	-33	
1.559500	-20	-1	13	-28	
1.560000	-19	-2	11	-23	
1.560500	-18	-3	9	-18	
1.561000	-17	-3	6	-14	
1.561500	-16	-3	4	-9	
1.562000	-15	-3	-2	-6	
1.562500	-15	-3	-9	-6	
1.563000	-14	-4	-18	-5	
1.563500	-13	-5	-26	-3	
1.564000	-12	-6	-31	0	
1.564500	-10	-7	-31	4	
1.565000	-8	-7	-28	9	
1.565500	-6	-8	-23	17	
1.566000	-5	-9	-18	23	
1.566500	-6	-9	-14	25	
1.567000	-7	-8	-11	25	
1.567500	-9	-7	-10	23	
1.568000	-11	-7	-9	17	
1.568500	-13	-6	-8	10	
1.569000	-15	-6	-5	3	
1.569500	-15	-5	-2	-4	
1.570000	-17	-4	0	-10	
1.570500	-19	-3	3	-18	
1.571000	-21	-2	7	-25	
1.571500	-23	0	12	-33	
1.572000	-27	1	16	-39	
1.572500	-30	2	18	-45	
1.573000	-30	2	18	-46	
1.573500	-29	1	17	-45	
1.574000	-27	0	16	-40	
1.574500	-24	0	14	-33	
1.575000	-22	-1	13	-27	
1.575500	-21	-1	11	-22	
1.576000	-20	-2	10	-17	
1.576500	-19	-2	8	-12	
1.577000	-17	-1	6	-6	
1.577500	-16	-1	3	-1	
1.578000	-16	-2	-1	5	
1.578500	-14	-3	-4	11	
1.579000	-13	-3	-5	16	
1.579500	-12	-4	-6	20	
1.580000	-12	-4	-8	21	
1.580500	-10	-4	-9	24	
1.581000	-8	-4	-10	26	
1.581500	-6	-4	-12	32	
1.582000	-4	-5	-14	39	
1.582500	-3	-6	-17	44	
1.583000	-4	-7	-17	46	
1.583500	-6	-8	-17	45	
1.584000	-7	-8	-16	39	
1.584500	-9	-7	-11	32	
1.585000	-11	-6	-7	23	
1.585500	-13	-6	-4	13	
1.586000	-15	-6	-2	5	
1.586500	-17	-6	1	-5	
1.587000	-19	-5	4	-14	
1.587500	-20	-5	7	-20	
1.588000	-22	-5	11	-24	
1.588500	-24	-3	15	-29	
1.589000	-24	-3	19	-35	
1.589500	-26	-3	20	-37	
1.590000	-25	-4	19	-35	
1.590500	-24	-4	18	-29	
1.591000	-22	-4	16	-24	
1.591500	-20	-3	14	-18	
1.592000	-20	-4	12	-14	
1.592500	-18	-4	11	-12	
1.593000	-17	-4	9	-10	
1.593500	-16	-5	8	-7	
1.594000	-15	-4	6	-4	
1.594500	-15	-4	3	-1	
1.595000	-15	-3	-1	3	
1.595500	-15	-2	-8	4	
1.596000	-14	-1	-14	1	
1.596500	-13	-2	-20	-2	
1.597000	-11	-3	-24	-5	
1.597500	-8	-5	-26	-4	
1.598000	-7	-5	-29	2	
1.598500	-5	-6	-30	10	
1.599000	-5	-7	-31	20	
1.599500	-5	-7	-29	26	
1.600000	-5	-8	-27	28	
1.600500	-7	-7	-23	24	
1.601000	-9	-6	-20	18	
1.601500	-12	-4	-15	10	
1.602000	-13	-3	-11	4	
1.602500	-16	-1	-8	4	
1.603000	-18	0	-2	3	
1.603500	-21	1	5	0	
1.604000	-23	2	12	-7	
1.604500	-25	2	17	-16	
1.605000	-27	1	20	-26	
1.605500	-29	1	22	-37	
1.606000	-30	1	23	-45	
1.606500	-28	1	21	-48	
1.607000	-26	1	19	-47	
1.607500	-24	1	15	-43	
1.608000	-22	0	12	-40	
1.608500	-21	-2	10	-36	
1.609000	-20	-4	8	-31	
1.609500	-19	-4	6	-25	
1.610000	-17	-6	4	-18	
1.610500	-17	-6	2	-11	
1.611000	-16	-5	1	-6	
1.611500	-15	-5	-1	-1	
1.612000	-14	-6	-2	4	
1.612500	-12	-7	-3	11	
1.613000	-11	-9	-5	17	
1.613500	-10	-9	-6	23	
1.614000	-9	-9	-6	27	
1.614500	-7	-10	-9	31	
1.615000	-5	-11	-12	38	
1.615500	-4	-11	-17	46	
1.616000	-3	-9	-19	53	
1.616500	-4	-6	-18	56	
1.617000	-4	-4	-16	56	
1.617500	-7	-2	-14	51	
1.618000	-9	-2	-11	42	
1.618500	-11	-3	-7	31	
1.619000	-13	-3	-2	20	
1.619500	-15	-2	4	10	
1.620000	-19	-1	10	-1	
1.620500	-22	-2	15	-13	
1.621000	-24	-1	16	-24	
1.621500	-24	0	12	-41	
1.622000	-25	2	10	-56	
1.622500	-26	2	11	-69	
1.623000	-27	1	20	-76	
1.623500	-26	-1	26	-77	
1.624000	-24	-1	28	-72	
1.624500	-24	-1	23	-64	
1.625000	-23	-1	16	-56	
1.625500	-22	0	11	-48	
1.626000	-21	0	7	-40	
1.626500	-19	0	5	-33	
1.627000	-18	-1	4	-26	
1.627500	-16	-2	4	-19	
1.628000	-14	-2	4	-10	
1.628500	-13	-3	3	-2	
1.629000	-11	-4	2	6	
1.629500	-10	-4	7	10	
1.630000	-9	-5	14	14	
1.630500	-9	-4	22	18	
1.631000	-9	-3	23	24	
1.631500	-9	-2	18	31	
1.632000	-8	-1	1	38	
1.632500	-8	-1	-16	42	
1.633000	-7	-2	-31	42	
1.633500	-7	-3	-40	40	
1.634000	-8	-5	-45	35	
1.634500	-9	-5	-45	29	
1.635000	-12	-4	-44	23	
1.635500	-14	-3	-40	16	
1.636000	-15	-2	-35	8	
1.636500	-17	-1	-30	0	
1.637000	-21	2	-24	-8	
1.637500	-25	2	-18	-14	
1.638000	-27	2	-13	-20	
1.638500	-29	2	-9	-25	
1.639000	-31	1	-5	-30	
1.639500	-32	1	0	-33	
1.640000	-30	1	3	-33	
1.640500	-28	1	1	-28	
1.641000	-25	0	-3	-23	
1.641500	-24	-1	-7	-18	
1.642000	-22	-1	-10	-14	
1.642500	-22	-3	-11	-12	
1.643000	-21	-4	-14	-7	
1.643500	-19	-5	-15	-3	
1.644000	-18	-5	-14	0	
1.644500	-17	-5	-13	3	
1.645000	-15	-6	-11	6	
1.645500	-14	-5	-10	8	
1.646000	-11	-6	-8	10	
1.646500	-10	-6	-5	11	
1.647000	-9	-7	-3	12	
1.647500	-8	-8	-2	13	
1.648000	-7	-10	-3	16	
1.648500	-6	-11	-6	20	
1.649000	-5	-11	-9	25	
1.649500	-5	-9	-9	29	
1.650000	-7	-8	-6	31	
1.650500	-8	-6	-2	28	
1.651000	-10	-6	1	22	
1.651500	-12	-6	4	12	
1.652000	-15	-6	7	3	
1.652500	-18	-6	8	-6	
1.653000	-19	-4	12	-15	
1.653500	-22	-3	15	-21	
1.654000	-23	-2	18	-25	
1.654500	-25	-1	20	-28	
1.655000	-27	-1	21	-32	
1.655500	-29	-1	23	-36	
1.656000	-30	-1	24	-40	
1.656500	-28	-1	23	-41	
1.657000	-27	-1	16	-39	
1.657500	-24	-1	5	-35	
1.658000	-22	0	-6	-30	
1.658500	-20	-1	-14	-26	
1.659000	-19	-2	-14	-21	
1.659500	-18	-3	-9	-18	
1.660000	-17	-4	-4	-13	
1.660500	-16	-5	0	-8	
1.661000	-15	-6	1	-3	
1.661500	-14	-6	1	5	
1.662000	-14	-7	-1	11	
1.662500	-13	-7	-2	15	
1.663000	-11	-7	-1	18	
1.663500	-10	-7	0	21	
1.664000	-9	-7	1	24	
1.664500	-7	-5	0	29	
1.665000	-5	-4	-3	35	
1.665500	-3	-5	-6	42	
1.666000	-3	-6	-7	48	
1.666500	-4	-6	-8	47	
1.667000	-5	-7	-7	44	
1.667500	-8	-6	-7	38	
1.668000	-10	-6	-6	29	
1.668500	-13	-5	-6	19	
1.669000	-16	-5	-4	8	
1.669500	-18	-4	-1	-1	
1.670000	-21	-4	2	-11	
1.670500	-22	-4	6	-19	
1.671000	-23	-4	9	-24	
1.671500	-24	-3	12	-31	
1.672000	-26	-3	14	-37	
1.672500	-27	-2	16	-44	
1.673000	-27	-2	17	-48	
1.673500	-27	0	17	-48	
1.674000	-26	1	18	-46	
1.674500	-25	1	17	-43	
1.675000	-23	0	17	-39	
1.675500	-21	-1	16	-36	
1.676000	-20	-2	15	-32	
1.676500	-19	-2	13	-26	
1.677000	-18	-3	11	-19	
1.677500	-16	-5	9	-12	
1.678000	-15	-4	6	-4	
1.678500	-14	-4	4	4	
1.679000	-14	-5	2	9	
1.679500	-13	-4	0	13	
1.680000	-12	-4	-2	18	
1.680500	-11	-4	-5	23	
1.681000	-9	-4	-9	29	
1.681500	-6	-5	-12	36	
1.682000	-4	-5	-15	42	
1.682500	-3	-5	-16	47	
1.683000	-3	-5	-16	47	
1.683500	-4	-5	-15	45	
1.684000	-6	-6	-13	39	
1.684500	-10	-6	-9	32	
1.685000	-12	-6	-5	22	
1.685500	-15	-5	-2	11	
1.686000	-17	-5	2	1	
1.686500	-19	-5	5	-11	
1.687000	-22	-5	8	-23	
1.687500	-22	-4	10	-34	
1.688000	-24	-3	11	-43	
1.688500	-26	-2	12	-48	
1.689000	-27	-3	12	-53	
1.689500	-28	-3	11	-56	
1.690000	-26	-4	9	-58	
1.690500	-24	-4	8	-56	
1.691000	-22	-5	7	-55	
1.691500	-21	-5	7	-51	
1.692000	-20	-5	7	-46	
1.692500	-19	-5	7	-40	
1.693000	-18	-5	5	-33	
1.693500	-17	-5	3	-27	
1.694000	-18	-4	1	-20	
1.694500	-17	-2	-2	-14	
1.695000	-16	-1	-4	-8	
1.695500	-14	-1	-6	-1	
1.696000	-13	-2	-4	4	
1.696500	-11	-3	0	9	
1.697000	-11	-4	5	13	
1.697500	-10	-4	8	18	
1.698000	-10	-4	9	26	
1.698500	-8	-5	7	35	
1.699000	-6	-4	4	45	
1.699500	-5	-4	0	50	
1.700000	-5	-3	-1	49	
1.700500	-7	-4	-3	43	
1.701000	-8	-4	-2	36	
1.701500	-11	-5	-1	26	
1.702000	-13	-5	1	17	
1.702500	-15	-4	3	10	
1.703000	-17	-4	4	4	
1.703500	-18	-4	5	-1	
1.704000	-20	-4	6	-7	
1.704500	-22	-4	6	-13	
1.705000	-25	-3	4	-20	
1.705500	-27	-2	3	-29	
1.706000	-29	0	0	-37	
1.706500	-29	1	-2	-43	
1.707000	-28	2	-5	-46	
1.707500	-26	1	-5	-43	
1.708000	-23	1	-4	-36	
1.708500	-22	0	-3	-29	
1.709000	-22	0	-1	-18	
1.709500	-20	-2	-3	-8	
1.710000	-19	-3	-3	0	
1.710500	-17	-3	-4	5	
1.711000	-16	-3	-3	7	
1.711500	-14	-4	-4	11	
1.712000	-13	-4	-5	15	
1.712500	-13	-3	-5	18	
1.713000	-12	-3	-4	22	
1.713500	-13	-3	-1	26	
1.714000	-12	-2	0	30	
1.714500	-10	-3	0	33	
1.715000	-7	-4	-2	37	
1.715500	-5	-5	-7	42	
1.716000	-3	-6	-10	46	
1.716500	-4	-6	-12	48	
1.717000	-5	-6	-12	47	
1.717500	-8	-4	-11	42	
1.718000	-9	-3	-6	33	
1.718500	-11	-2	-1	23	
1.719000	-13	-2	4	11	
1.719500	-16	-2	9	2	
1.720000	-17	-3	11	-7	
1.720500	-20	-3	7	-16	
1.721000	-22	-3	-1	-23	
1.721500	-25	-2	-11	-30	
1.722000	-28	-2	-12	-34	
1.722500	-32	-2	-4	-36	
1.723000	-32	-2	9	-37	
1.723500	-29	-3	21	-39	
1.724000	-26	-4	27	-41	
1.724500	-24	-4	28	-42	
1.725000	-21	-4	24	-42	
1.725500	-19	-5	16	-41	
1.726000	-17	-5	6	-40	
1.726500	-14	-5	-3	-40	
1.727000	-12	-6	-11	-39	
1.727500	-11	-6	-15	-39	
1.728000	-11	-7	-11	-34	
1.728500	-12	-6	-4	-27	
1.729000	-13	-5	4	-21	
1.729500	-13	-4	5	-18	
1.730000	-13	-3	2	-15	
1.730500	-12	-3	0	-7	
1.731000	-12	-4	2	4	
1.731500	-10	-5	9	22	
1.732000	-8	-6	19	37	
1.732500	-7	-6	28	49	
1.733000	-6	-6	32	54	
1.733500	-6	-5	31	53	
1.734000	-8	-3	24	46	
1.734500	-10	-3	12	37	
1.735000	-13	-1	-1	26	
1.735500	-14	0	-13	17	
1.736000	-16	1	-21	10	
1.736500	-18	1	-27	4	
1.737000	-20	1	-27	-1	
1.737500	-23	1	-23	-7	
1.738000	-25	2	-16	-15	
1.738500	-27	0	-10	-24	
1.739000	-29	-1	-7	-35	
1.739500	-30	0	-5	-43	
1.740000	-30	0	-5	-49	
1.740500	-28	0	-5	-49	
1.741000	-27	0	-3	-46	
1.741500	-25	0	0	-43	
1.742000	-23	0	4	-40	
1.742500	-22	-1	5	-35	
1.743000	-21	-2	7	-27	
1.743500	-20	-3	7	-21	
1.744000	-18	-4	4	-14	
1.744500	-16	-4	0	-9	
1.745000	-14	-4	-3	-2	
1.745500	-13	-4	-5	4	
1.746000	-12	-4	-7	7	
1.746500	-11	-4	-10	11	
1.747000	-10	-5	-11	13	
1.747500	-9	-5	-13	16	
1.748000	-8	-5	-15	20	
1.748500	-7	-6	-17	26	
1.749000	-6	-7	-19	31	
1.749500	-5	-7	-19	35	
1.750000	-6	-6	-18	35	
1.750500	-7	-6	-16	31	
1.751000	-9	-5	-13	25	
1.751500	-12	-6	-8	15	
1.752000	-14	-6	-3	5	
1.752500	-16	-6	1	-5	
1.753000	-18	-5	5	-16	
1.753500	-22	-3	9	-26	
1.754000	-24	-2	11	-35	
1.754500	-25	-2	15	-42	
1.755000	-27	-2	18	-48	
1.755500	-28	-3	22	-55	
1.756000	-29	-4	24	-60	
1.756500	-28	-4	25	-59	
1.757000	-27	-4	24	-55	
1.757500	-25	-3	21	-48	
1.758000	-24	-4	18	-39	
1.758500	-23	-4	14	-30	
1.759000	-22	-4	11	-23	
1.759500	-21	-4	8	-16	
1.760000	-19	-5	5	-11	
1.760500	-18	-6	3	-4	
1.761000	-15	-5	-2	2	
1.761500	-13	-5	-7	9	
1.762000	-12	-5	-10	15	
1.762500	-11	-6	-12	19	
1.763000	-10	-7	-12	24	
1.763500	-8	-7	-13	29	
1.764000	-7	-7	-15	34	
1.764500	-6	-5	-18	38	
1.765000	-5	-3	-20	42	
1.765500	-3	-3	-22	46	
1.766000	-3	-3	-22	50	
1.766500	-3	-3	-22	51	
1.767000	-4	-4	-21	51	
1.767500	-7	-3	-20	48	
1.768000	-9	-3	-19	40	
1.768500	-13	-3	-17	33	
1.769000	-14	-3	-14	24	
1.769500	-16	-3	-14	14	
1.770000	-18	-2	-20	3	
1.770500	-20	-1	-28	-9	
1.771000	-22	0	-38	-18	
1.771500	-24	0	-45	-28	
1.772000	-27	1	-46	-37	
1.772500	-29	0	-43	-45	
1.773000	-28	-1	-35	-49	
1.773500	-26	-2	-25	-49	
1.774000	-24	-2	-15	-45	
1.774500	-22	-2	-3	-40	
1.775000	-21	-3	7	-35	
1.775500	-21	-3	15	-29	
1.776000	-21	-5	21	-25	
1.776500	-20	-6	27	-22	
1.777000	-18	-8	33	-20	
1.777500	-16	-9	39	-15	
1.778000	-15	-9	46	-7	
1.778500	-13	-9	51	2	
1.779000	-12	-8	54	9	
1.779500	-11	-7	52	14	
1.780000	-11	-6	48	18	
1.780500	-10	-5	41	19	
1.781000	-9	-6	33	20	
1.781500	-7	-7	24	21	
1.782000	-4	-8	15	23	
1.782500	-3	-9	7	23	
1.783000	-3	-8	3	24	
1.783500	-5	-6	-3	23	
1.784000	-8	-5	-10	23	
1.784500	-12	-2	-20	22	
1.785000	-15	0	-28	19	
1.785500	-18	1	-34	15	
1.786000	-20	2	-35	12	
1.786500	-23	2	-30	6	
1.787000	-25	3	-22	-1	
1.787500	-26	2	-14	-8	
1.788000	-26	0	-7	-14	
1.788500	-27	-2	-1	-17	
1.789000	-29	-2	5	-23	
1.789500	-31	-2	13	-29	
1.790000	-30	-2	19	-34	
1.790500	-28	-2	20	-33	
1.791000	-26	-2	19	-30	
1.791500	-23	-3	17	-23	
1.792000	-21	-3	14	-17	
1.792500	-19	-4	12	-12	
1.793000	-18	-4	18	-7	
1.793500	-17	-5	31	-3	
1.794000	-17	-5	49	1	
1.794500	-16	-5	60	4	
1.795000	-15	-6	64	6	
1.795500	-14	-5	59	10	
1.796000	-13	-5	51	13	
1.796500	-13	-4	44	15	
1.797000	-13	-3	35	17	
1.797500	-12	-3	25	18	
1.798000	-10	-3	8	20	
1.798500	-8	-4	-13	22	
1.799000	-6	-5	-35	26	
1.799500	-6	-5	-60	29	
1.800000	-7	-5	-78	31	
1.800500	-9	-5	-91	29	
1.801000	-12	-5	-92	24	
1.801500	-14	-5	-83	12	
1.802000	-16	-7	-61	1	
1.802500	-17	-8	-36	-10	
1.803000	-17	-8	-9	-19	
1.803500	-18	-8	9	-25	
1.804000	-20	-7	17	-31	
1.804500	-22	-5	15	-37	
1.805000	-27	-1	9	-42	
1.805500	-29	2	4	-49	
1.806000	-30	4	2	-53	
1.806500	-28	4	3	-56	
1.807000	-26	3	4	-54	
1.807500	-23	2	4	-48	
1.808000	-22	0	5	-40	
1.808500	-22	1	4	-32	
1.809000	-22	1	2	-21	
1.809500	-22	0	3	-11	
1.810000	-20	-1	3	1	
1.810500	-17	-3	3	10	
1.811000	-15	-4	2	16	
1.811500	-14	-4	2	20	
1.812000	-12	-4	2	20	
1.812500	-11	-4	1	17	
1.813000	-11	-5	1	14	
1.813500	-10	-6	3	12	
1.814000	-9	-6	6	13	
1.814500	-8	-6	14	17	
1.815000	-6	-5	23	24	
1.815500	-6	-5	31	32	
1.816000	-5	-5	34	38	
1.816500	-6	-5	34	34	
1.817000	-6	-6	29	26	
1.817500	-7	-7	21	16	
1.818000	-9	-8	8	2	
1.818500	-12	-5	-9	-11	
1.819000	-17	-3	-29	-27	
1.819500	-21	-2	-43	-37	
1.820000	-23	-1	-48	-42	
1.820500	-24	-1	-43	-41	
1.821000	-23	-2	-37	-37	
1.821500	-24	-2	-30	-36	
1.822000	-26	-2	-26	-37	
1.822500	-27	-2	-24	-42	
1.823000	-29	-2	-25	-45	
1.823500	-27	-1	-26	-46	
1.824000	-25	-2	-26	-42	
1.824500	-23	-2	-24	-36	
1.825000	-21	-2	-21	-30	
1.825500	-19	-3	-15	-24	
1.826000	-18	-3	-11	-18	
1.826500	-17	-4	-6	-12	
1.827000	-17	-4	-2	-7	
1.827500	-16	-4	3	0	
1.828000	-16	-3	7	5	
1.828500	-15	-4	10	10	
1.829000	-14	-5	15	16	
1.829500	-13	-6	17	20	
1.830000	-13	-6	16	22	
1.830500	-12	-6	12	24	
1.831000	-11	-6	9	26	
1.831500	-8	-6	6	32	
1.832000	-5	-7	2	38	
1.832500	-3	-7	-2	43	
1.833000	-1	-7	-4	46	
1.833500	-1	-7	-6	45	
1.834000	-4	-7	-7	41	
1.834500	-7	-7	-6	35	
1.835000	-11	-6	-3	26	
1.835500	-12	-7	0	19	
1.836000	-14	-6	3	12	
1.836500	-16	-5	5	3	
1.837000	-19	-4	8	-6	
1.837500	-21	-4	12	-15	
1.838000	-22	-4	14	-25	
1.838500	-25	-2	18	-33	
1.839000	-27	-1	21	-41	
1.839500	-27	-2	23	-47	
1.840000	-26	-3	23	-48	
1.840500	-24	-4	23	-46	
1.841000	-22	-5	24	-42	
1.841500	-20	-5	25	-39	
1.842000	-19	-6	29	-35	
1.842500	-17	-5	31	-34	
1.843000	-16	-5	31	-31	
1.843500	-15	-4	26	-28	
1.844000	-14	-3	18	-22	
1.844500	-14	-1	7	-17	
1.845000	-15	-1	-1	-12	
1.845500	-16	0	-8	-7	
1.846000	-16	-1	-12	-4	
1.846500	-16	-1	-16	1	
1.847000	-14	-3	-16	6	
1.847500	-13	-4	-16	11	
1.848000	-11	-7	-15	18	
1.848500	-9	-7	-15	27	
1.849000	-7	-8	-17	36	
1.849500	-6	-8	-17	42	
1.850000	-6	-7	-18	45	
1.850500	-6	-5	-17	43	
1.851000	-8	-5	-18	39	
1.851500	-11	-4	-21	29	
1.852000	-14	-4	-24	19	
1.852500	-16	-3	-25	8	
1.853000	-17	-3	-16	-4	
1.853500	-20	-3	-1	-14	
1.854000	-22	-2	14	-25	
1.854500	-23	-2	30	-34	
1.855000	-24	-2	40	-41	
1.855500	-25	-1	44	-45	
1.856000	-26	0	41	-45	
1.856500	-27	0	32	-37	
1.857000	-26	1	17	-26	
1.857500	-26	1	4	-15	
1.858000	-26	0	-7	-12	
1.858500	-25	0	-12	-12	
1.859000	-24	0	-12	-12	
1.859500	-23	-2	-4	-11	
1.860000	-20	-3	4	-9	
1.860500	-17	-4	0	-5	
1.861000	-16	-5	-14	0	
1.861500	-14	-6	-33	6	
1.862000	-13	-7	-49	13	
1.862500	-12	-9	-57	18	
1.863000	-11	-10	-55	23	
1.863500	-8	-11	-47	28	
1.864000	-6	-13	-37	31	
1.864500	-3	-17	-25	35	
1.865000	0	-23	-17	40	
1.865500	4	-30	-13	48	
1.866000	8	-38	-19	57	
1.866500	12	-45	-30	64	
1.867000	14	-50	-41	70	
1.867500	16	-56	-46	76	
1.868000	17	-60	-33	78	
1.868500	18	-65	-4	79	
1.869000	19	-69	37	76	
1.869500	19	-70	88	68	
1.870000	20	-72	130	53	
1.870500	19	-72	153	30	
1.871000	19	-75	157	10	
1.871500	19	-75	147	-11	
1.872000	19	-73	129	-26	
1.872500	19	-68	113	-40	
1.873000	18	-63	92	-51	
1.873500	16	-56	71	-60	
1.874000	12	-50	47	-72	
1.874500	4	-40	25	-82	
1.875000	-6	-27	8	-89	
1.875500	-17	-11	-17	-90	
1.876000	-31	14	-55	-85	
1.876500	-47	40	-109	-75	
1.877000	-62	68	-162	-64	
1.877500	-70	86	-194	-49	
1.878000	-69	93	-194	-36	
1.878500	-58	85	-166	-26	
1.879000	-46	74	-122	-17	
1.879500	-36	63	-77	-7	
1.880000	-32	55	-47	4	
1.880500	-32	51	-35	20	
1.881000	-32	46	-31	36	
1.881500	-30	40	-28	55	
1.882000	-24	32	-23	67	
1.882500	-20	27	-19	70	
1.883000	-18	25	-23	62	
1.883500	-17	22	-27	49	
1.884000	-17	19	-27	37	
1.884500	-16	17	-18	28	
1.885000	-13	13	-6	21	
1.885500	-10	9	5	15	
1.886000	-3	5	15	11	
1.886500	2	2	23	6	
1.887000	5	-2	36	0	
1.887500	11	-8	50	-9	
1.888000	17	-15	70	-24	
1.888500	26	-23	87	-40	
1.889000	34	-30	97	-54	
1.889500	42	-36	103	-61	
1.890000	51	-41	104	-65	
1.890500	60	-48	106	-60	
1.891000	72	-53	103	-53	
1.891500	82	-58	96	-50	
1.892000	88	-59	83	-48	
1.892500	81	-56	71	-46	
1.893000	69	-51	57	-40	
1.893500	53	-46	44	-31	
1.894000	41	-41	33	-22	
1.894500	36	-39	21	-18	
1.895000	26	-34	14	-22	
1.895500	15	-27	20	-27	
1.896000	1	-18	35	-32	
1.896500	-11	-10	54	-39	
1.897000	-21	1	54	-45	
1.897500	-41	15	40	-49	
1.898000	-65	34	8	-38	
1.898500	-97	57	-29	-21	
1.899000	-123	75	-68	6	
1.899500	-139	87	-92	32	
1.900000	-137	90	-97	57	
1.900500	-125	85	-82	78	
1.901000	-104	75	-62	92	
1.901500	-85	65	-42	98	
1.902000	-71	57	-41	92	
1.902500	-67	53	-54	78	
1.903000	-68	52	-88	53	
1.903500	-74	48	-118	27	
1.904000	-76	45	-137	-6	
1.904500	-76	39	-130	-35	
1.905000	-74	33	-107	-58	
1.905500	-72	29	-65	-70	
1.906000	-68	25	-26	-75	
1.906500	-64	21	4	-73	
1.907000	-60	19	11	-68	
1.907500	-56	18	6	-60	
1.908000	-53	16	-5	-54	
1.908500	-50	14	-16	-51	
1.909000	-47	13	-25	-50	
1.909500	-44	14	-41	-47	
1.910000	-42	13	-55	-42	
1.910500	-40	12	-60	-33	
1.911000	-38	9	-57	-23	
1.911500	-36	6	-46	-10	
1.912000	-34	4	-31	0	
1.912500	-31	1	-16	7	
1.913000	-27	0	-1	12	
1.913500	-24	-1	7	13	
1.914000	-22	-2	11	11	
1.914500	-20	-3	7	7	
1.915000	-18	-3	-1	4	
1.915500	-15	-3	-13	5	
1.916000	-14	-3	-20	10	
1.916500	-13	-4	-23	16	
1.917000	-12	-5	-21	21	
1.917500	-14	-5	-18	24	
1.918000	-16	-5	-12	22	
1.918500	-18	-5	-5	18	
1.919000	-20	-4	-1	10	
1.919500	-22	-3	4	2	
1.920000	-24	-2	6	-8	
1.920500	-26	-2	9	-17	
1.921000	-28	-2	12	-24	
1.921500	-27	-2	15	-32	
1.922000	-28	-3	18	-39	
1.922500	-28	-3	20	-46	
1.923000	-28	-3	21	-50	
1.923500	-26	-4	22	-49	
1.924000	-24	-4	19	-45	
1.924500	-23	-4	17	-38	
1.925000	-21	-3	15	-32	
1.925500	-20	-4	15	-26	
1.926000	-17	-5	14	-21	
1.926500	-15	-7	14	-16	
1.927000	-13	-8	12	-11	
1.927500	-11	-8	9	-5	
1.928000	-10	-8	4	1	
1.928500	-7	-8	-5	7	
1.929000	-6	-9	-17	12	
1.929500	-4	-8	-28	16	
1.930000	-4	-8	-36	18	
1.930500	-4	-8	-37	21	
1.931000	-2	-9	-36	25	
1.931500	0	-9	-34	32	
1.932000	2	-9	-30	39	
1.932500	3	-9	-26	46	
1.933000	2	-9	-22	50	
1.933500	1	-9	-18	51	
1.934000	-1	-9	-13	47	
1.934500	-5	-8	-5	40	
1.935000	-7	-8	4	31	
1.935500	-10	-8	16	20	
1.936000	-12	-8	28	10	
1.936500	-14	-8	40	-1	
1.937000	-17	-7	47	-11	
1.937500	-19	-7	50	-20	
1.938000	-20	-7	55	-29	
1.938500	-23	-7	60	-37	
1.939000	-23	-7	67	-43	
1.939500	-23	-8	70	-45	
1.940000	-20	-13	71	-44	
1.940500	-17	-19	69	-37	
1.941000	-12	-25	63	-30	
1.941500	-5	-32	55	-22	
1.942000	3	-38	45	-17	
1.942500	11	-44	38	-12	
1.943000	18	-50	39	-4	
1.943500	28	-59	45	6	
1.944000	43	-67	51	19	
1.944500	63	-78	64	31	
1.945000	91	-89	85	44	
1.945500	119	-101	139	54	
1.946000	149	-118	201	61	
1.946500	187	-134	260	71	
1.947000	228	-157	292	82	
1.947500	278	-176	299	96	
1.948000	319	-191	276	114	
1.948500	352	-196	237	130	
1.949000	369	-194	188	150	
1.949500	373	-178	118	163	
1.950000	354	-153	52	172	
1.950500	324	-123	-21	167	
1.951000	285	-96	-71	154	
1.951500	250	-80	-97	129	
1.952000	223	-79	-71	103	
1.952500	196	-87	-19	74	
1.953000	169	-96	65	44	
1.953500	124	-88	155	18	
1.954000	70	-69	246	5	
1.954500	19	-37	315	2	
1.955000	-47	-5	352	4	
1.955500	-101	22	354	-5	
1.956000	-149	36	320	-18	
1.956500	-168	36	258	-18	
1.957000	-164	20	158	-4	
1.957500	-132	-13	66	21	
1.958000	-87	-55	4	23	
1.958500	-25	-115	-26	4	
1.959000	46	-171	-43	-52	
1.959500	114	-227	-90	-126	
1.960000	188	-266	-147	-213	
1.960500	249	-291	-210	-322	
1.961000	309	-307	-242	-421	
1.961500	370	-316	-242	-516	
1.962000	428	-323	-250	-575	
1.962500	503	-342	-261	-603	
1.963000	570	-372	-268	-570	
1.963500	634	-397	-267	-501	
1.964000	659	-409	-262	-349	
1.964500	648	-404	-252	-189	
1.965000	592	-410	-234	-28	
1.965500	527	-427	-193	121	
1.966000	451	-421	-127	238	
1.966500	352	-393	-44	350	
1.967000	247	-330	54	397	
1.967500	124	-276	123	370	
1.968000	35	-243	130	273	
1.968500	-13	-214	101	176	
1.969000	-7	-181	57	137	
1.969500	26	-116	20	137	
1.970000	64	-9	7	150	
1.970500	79	119	30	172	
1.971000	55	258	68	189	
1.971500	9	325	112	190	
1.972000	-39	253	191	174	
1.972500	-60	103	269	142	
1.973000	-44	-71	350	108	
1.973500	28	-186	383	78	
1.974000	114	-233	369	19	
1.974500	191	-225	304	-50	
1.975000	231	-153	221	-132	
1.975500	224	-39	105	-188	
1.976000	155	141	14	-208	
1.976500	75	301	-46	-171	
1.977000	5	430	-72	-119	
1.977500	-75	500	-87	-68	
1.978000	-141	527	-135	-11	
1.978500	-197	495	-192	44	
1.979000	-269	452	-250	122	
1.979500	-351	428	-296	167	
1.980000	-469	439	-334	166	
1.980500	-579	472	-400	105	
1.981000	-682	538	-489	31	
1.981500	-696	556	-597	-33	
1.982000	-641	434	-672	-60	
1.982500	-506	174	-694	-54	
1.983000	-377	-159	-643	-11	
1.983500	-267	-392	-550	36	
1.984000	-201	-506	-441	55	
1.984500	-171	-558	-338	41	
1.985000	-156	-614	-266	-2	
1.985500	-132	-688	-221	-24	
1.986000	-71	-730	-204	-23	
1.986500	8	-741	-204	2	
1.987000	86	-732	-220	13	
1.987500	150	-716	-238	-3	
1.988000	182	-701	-253	-67	
1.988500	181	-685	-248	-157	
1.989000	154	-673	-224	-318	
1.989500	119	-661	-161	-473	
1.990000	94	-617	-90	-611	
1.990500	87	-539	-20	-681	
1.991000	103	-336	20	-697	
1.991500	98	-121	32	-668	
1.992000	72	90	21	-603	
1.992500	11	264	4	-508	
1.993000	-42	409	-12	-410	
1.993500	-78	536	-18	-329	
1.994000	-110	631	-14	-229	
1.994500	-142	724	4	-110	
1.995000	-172	783	37	45	
1.995500	-187	812	121	195	
1.996000	-179	800	224	301	
1.996500	-145	782	331	355	
1.997000	-99	784	399	353	
1.997500	-65	755	409	305	
1.998000	-61	696	330	234	
1.998500	-97	678	207	180	
1.999000	-151	670	67	182	
1.999500	-200	622	-14	205	
2.000000	-226	519	-31	229	
2.000500	-214	386	24	237	
2.001000	-146	232	80	231	
2.001500	-63	117	109	217	
2.002000	13	53	84	203	
2.002500	121	-7	41	189	
2.003000	237	-77	-11	172	
2.003500	390	-181	-42	157	
2.004000	502	-234	-51	161	
2.004500	561	-149	-64	167	
2.005000	552	82	-71	168	
2.005500	512	385	-49	169	
2.006000	448	540	6	167	
2.006500	333	548	82	146	
2.007000	195	424	169	111	
2.007500	23	305	226	63	
2.008000	-118	226	231	-15	
2.008500	-236	167	200	-86	
2.009000	-330	151	153	-129	
2.009500	-405	215	122	-128	
2.010000	-484	260	114	-89	
2.010500	-519	258	132	-33	
2.011000	-482	77	158	6	
2.011500	-394	-143	181	-9	
2.012000	-296	-368	159	-55	
2.012500	-227	-500	111	-116	
2.013000	-206	-549	17	-150	
2.013500	-239	-537	-64	-159	
2.014000	-311	-499	-122	-145	
2.014500	-387	-431	-115	-113	
2.015000	-399	-358	-71	-65	
2.015500	-361	-289	5	-3	
2.016000	-274	-176	57	48	
2.016500	-211	-58	76	71	
2.017000	-187	80	96	94	
2.017500	-214	194	124	132	
2.018000	-245	279	186	169	
2.018500	-252	336	248	190	
2.019000	-226	360	298	174	
2.019500	-184	355	290	139	
2.020000	-170	303	236	92	
2.020500	-178	221	102	22	
2.021000	-198	116	-50	-44	
2.021500	-230	23	-194	-84	
2.022000	-260	-76	-285	-96	
2.022500	-250	-286	-322	-85	
2.023000	-203	-583	-318	-95	
2.023500	-107	-769	-293	-119	
2.024000	35	-838	-257	-166	
2.024500	192	-836	-233	-197	
2.025000	409	-811	-228	-204	
2.025500	591	-785	-253	-229	
2.026000	729	-763	-283	-249	
2.026500	798	-748	-310	-210	
2.027000	820	-736	-307	-134	
2.027500	818	-724	-286	-35	
2.028000	806	-713	-249	34	
2.028500	785	-700	-236	69	
2.029000	766	-689	-252	92	
2.029500	752	-677	-287	92	
2.030000	738	-666	-314	68	
2.030500	728	-654	-309	1	
2.031000	717	-642	-274	-101	
2.031500	707	-632	-224	-333	
2.032000	697	-621	-194	-552	
2.032500	685	-587	-166	-722	
2.033000	673	-530	-69	-794	
2.033500	661	-400	82	-802	
2.034000	648	-239	267	-783	
2.034500	628	0	347	-734	
2.035000	512	109	320	-649	
2.035500	344	79	150	-339	
2.036000	93	-10	-40	11	
2.036500	-202	-79	-207	277	
2.037000	-472	-97	-322	394	
2.037500	-592	-83	-376	398	
2.038000	-567	-64	-362	362	
2.038500	-402	-59	-289	327	
2.039000	-220	-9	-180	306	
2.039500	-80	191	-17	280	
2.040000	-43	424	124	239	
2.040500	-27	629	219	135	
2.041000	43	758	239	44	
2.041500	25	786	202	59	
2.042000	-72	683	95	26	
2.042500	-277	598	-16	-117	
2.043000	-434	573	-139	-316	
2.043500	-482	651	-207	-454	
2.044000	-447	746	-222	-376	
2.044500	-373	802	-129	-259	
2.045000	-212	823	-15	-185	
2.045500	-58	828	75	-145	
2.046000	71	827	123	-107	
2.046500	73	826	140	17	
2.047000	-10	826	146	141	
2.047500	-96	741	144	242	
2.048000	-168	576	122	350	
2.048500	-256	286	75	427	
2.049000	-459	-6	9	399	
2.049500	-712	-327	-32	286	
2.050000	-869	-576	-40	102	
2.050500	-929	-744	-5	-143	
2.051000	-934	-802	0	-366	
2.051500	-924	-799	-37	-591	
2.052000	-910	-777	-91	-721	
2.052500	-831	-758	-130	-759	
2.053000	-679	-745	-132	-753	
2.053500	-379	-731	-101	-735	
2.054000	-135	-671	-51	-716	
2.054500	11	-458	-2	-703	
2.055000	88	-133	30	-694	
2.055500	110	231	47	-683	
2.056000	86	557	67	-666	
2.056500	17	757	94	-616	
2.057000	-60	828	155	-463	
2.057500	-41	834	233	-172	
2.058000	26	823	363	179	
2.058500	119	816	436	465	
2.059000	141	818	434	688	
2.059500	103	824	269	804	
2.060000	4	829	72	840	
2.060500	-85	820	-100	841	
2.061000	-145	641	-172	834	
2.061500	-165	394	-160	829	
2.062000	-158	69	-60	827	
2.062500	-114	-272	49	828	
2.063000	-80	-596	162	830	
2.063500	-79	-791	228	788	
2.064000	-109	-864	252	517	
2.064500	-155	-862	221	203	
2.065000	-258	-833	176	-101	
2.065500	-366	-806	137	-424	
2.066000	-473	-784	96	-672	
2.066500	-533	-730	48	-787	
2.067000	-549	-559	-32	-812	
2.067500	-505	-224	-109	-799	
2.068000	-435	202	-182	-717	
2.068500	-337	561	-278	-576	
2.069000	-232	765	-400	-218	
2.069500	-145	837	-569	174	
2.070000	-149	843	-672	554	
2.070500	-206	832	-593	766	
2.071000	-300	821	-388	839	
2.071500	-369	815	-124	845	
2.072000	-403	815	120	831	
2.072500	-405	819	281	812	
2.073000	-396	825	383	730	
2.073500	-385	831	392	599	
2.074000	-344	835	330	334	
2.074500	-282	830	183	81	
2.075000	-181	813	35	-130	
2.075500	-56	788	-76	-326	
2.076000	130	763	-121	-465	
2.076500	312	744	-119	-497	
2.077000	460	729	-96	-478	
2.077500	617	612	-70	-445	
2.078000	729	395	-36	-377	
2.078500	798	-146	-21	-268	
2.079000	819	-636	-26	15	
2.079500	810	-891	-71	321	
2.080000	747	-962	-111	618	
2.080500	589	-946	-107	787	
2.081000	252	-881	-50	847	
2.081500	-106	-786	40	849	
2.082000	-401	-612	162	821	
2.082500	-676	-418	249	773	
2.083000	-841	-227	259	598	
2.083500	-890	32	225	388	
2.084000	-886	266	175	176	
2.084500	-865	491	194	31	
2.085000	-795	615	258	-52	
2.085500	-677	650	371	-110	
2.086000	-463	584	462	-138	
2.086500	-242	499	516	-107	
2.087000	-62	425	504	-48	
2.087500	43	397	450	25	
2.088000	58	405	336	64	
2.088500	-19	419	224	70	
2.089000	-125	424	128	64	
2.089500	-211	414	52	50	
2.090000	-206	386	-1	30	
2.090500	-143	348	-36	14	
2.091000	-35	316	-53	7	
2.091500	53	279	-58	22	
2.092000	107	213	-38	53	
2.092500	128	124	-7	97	
2.093000	107	28	42	118	
2.093500	31	-80	93	116	
2.094000	-59	-167	144	90	
2.094500	-135	-241	188	63	
2.095000	-154	-298	218	39	
2.095500	-105	-337	240	-3	
2.096000	37	-299	220	-48	
2.096500	234	-249	163	-106	
2.097000	431	-240	64	-152	
2.097500	624	-267	-32	-187	
2.098000	751	-306	-134	-224	
2.098500	808	-297	-198	-252	
2.099000	753	-258	-227	-253	
2.099500	628	-195	-204	-240	
2.100000	339	-98	-167	-217	
2.100500	35	16	-133	-208	
2.101000	-276	127	-125	-208	
2.101500	-403	184	-135	-211	
2.102000	-382	160	-115	-225	
2.102500	-245	60	-76	-250	
2.103000	-105	-78	-5	-282	
2.103500	9	-217	16	-307	
2.104000	61	-309	-24	-308	
2.104500	67	-348	-138	-285	
2.105000	42	-334	-254	-238	
2.105500	-1	-290	-343	-140	
2.106000	-74	-174	-365	-38	
2.106500	-119	-44	-330	72	
2.107000	-133	104	-194	139	
2.107500	-109	183	-34	161	
2.108000	-104	194	155	68	
2.108500	-160	138	285	-64	
2.109000	-214	71	352	-207	
2.109500	-243	14	327	-289	
2.110000	-194	-12	263	-308	
2.110500	-124	-13	181	-264	
2.111000	-52	9	112	-189	
2.111500	0	29	61	-61	
2.112000	27	36	14	65	
2.112500	15	-12	-24	183	
2.113000	-3	-103	-64	289	
2.113500	-4	-235	-71	363	
2.114000	2	-334	-45	401	
2.114500	7	-371	15	376	
2.115000	6	-376	60	290	
2.115500	-7	-368	40	143	
2.116000	-39	-293	-30	6	
2.116500	-29	-196	-128	-97	
2.117000	23	-77	-216	-148	
2.117500	165	17	-271	-166	
2.118000	290	81	-300	-178	
2.118500	362	110	-300	-197	
2.119000	385	81	-285	-256	
2.119500	374	-51	-253	-318	
2.120000	267	-247	-215	-374	
2.120500	117	-449	-158	-323	
2.121000	-82	-533	-107	-217	
2.121500	-278	-518	-67	-52	
2.122000	-438	-422	13	66	
2.122500	-547	-308	104	123	
2.123000	-571	-202	237	181	
2.123500	-491	-68	329	223	
2.124000	-316	27	372	200	
2.124500	-117	53	348	167	
2.125000	27	33	299	144	
2.125500	57	-3	234	85	
2.126000	-51	-38	173	13	
2.126500	-154	-77	116	-79	
2.127000	-207	-153	46	-151	
2.127500	-201	-199	-23	-198	
2.128000	-176	-208	-99	-209	
2.128500	-151	-173	-148	-198	
2.129000	-153	-120	-168	-179	
2.129500	-173	-51	-165	-140	
2.130000	-197	-75	-148	-79	
2.130500	-202	-191	-115	74	
2.131000	-176	-474	-63	223	
2.131500	-126	-722	4	279	
2.132000	-70	-848	84	249	
2.132500	27	-807	132	164	
2.133000	122	-658	103	50	
2.133500	219	-411	30	-42	
2.134000	271	-196	-60	-87	
2.134500	286	-32	-119	-92	
2.135000	291	117	-145	-72	
2.135500	286	271	-154	-16	
2.136000	264	514	-161	45	
2.136500	195	715	-172	106	
2.137000	107	817	-178	132	
2.137500	21	844	-172	120	
2.138000	-13	832	-134	114	
2.138500	22	681	-83	113	
2.139000	69	510	-31	106	
2.139500	100	364	18	77	
2.140000	62	261	55	25	
2.140500	10	189	84	-16	
2.141000	-23	134	133	-36	
2.141500	-42	96	200	-22	
2.142000	-50	60	269	-1	
2.142500	-30	57	309	17	
2.143000	1	85	304	18	
2.143500	39	141	266	10	
2.144000	63	180	210	10	
2.144500	72	169	123	18	
2.145000	76	131	40	31	
2.145500	58	85	-47	33	
2.146000	-3	40	-113	24	
2.146500	-102	10	-161	-12	
2.147000	-209	-8	-188	-54	
2.147500	-353	-5	-194	-95	
2.148000	-439	11	-180	-93	
2.148500	-422	30	-131	-78	
2.149000	-277	24	-56	-94	
2.149500	-78	-41	44	-130	
2.150000	180	-159	117	-175	
2.150500	356	-293	143	-159	
2.151000	414	-360	132	-112	
2.151500	376	-401	102	-56	
2.152000	302	-485	93	-52	
2.152500	221	-626	94	-109	
2.153000	130	-796	84	-222	
2.153500	-18	-884	58	-329	
2.154000	-58	-904	17	-403	
2.154500	-3	-886	-9	-419	
2.155000	62	-839	-23	-385	
2.155500	79	-773	-30	-276	
2.156000	23	-581	-19	-147	
2.156500	-12	-396	5	22	
2.157000	-9	-276	32	167	
2.157500	51	-134	53	281	
2.158000	102	43	71	315	
2.158500	116	313	75	298	
2.159000	68	519	68	258	
2.159500	-5	588	39	212	
2.160000	-60	397	5	162	
2.160500	-102	53	-35	115	
2.161000	-156	-132	-73	69	
2.161500	-152	-111	-111	-23	
2.162000	-105	141	-151	-112	
2.162500	-40	430	-184	-188	
2.163000	-1	671	-211	-208	
2.163500	-1	798	-237	-199	
2.164000	-30	831	-262	-196	
2.164500	-71	799	-280	-188	
2.165000	-170	780	-279	-170	
2.165500	-235	791	-239	-82	
2.166000	-219	806	-156	27	
2.166500	-105	786	-43	159	
2.167000	48	682	84	248	
2.167500	208	476	171	290	
2.168000	298	217	190	259	
2.168500	298	-156	158	197	
2.169000	240	-483	101	106	
2.169500	165	-759	33	6	
2.170000	56	-900	-23	-108	
2.170500	-19	-942	-71	-231	
2.171000	-36	-937	-103	-330	
2.171500	-3	-920	-120	-420	
2.172000	48	-894	-112	-490	
2.172500	126	-869	-95	-549	
2.173000	175	-847	-80	-562	
2.173500	175	-828	-73	-535	
2.174000	128	-777	-71	-434	
2.174500	71	-631	-40	-242	
2.175000	47	-452	12	46	
2.175500	19	-278	104	316	
2.176000	-60	-81	199	496	
2.176500	-196	120	281	582	
2.177000	-343	410	317	559	
2.177500	-477	616	318	447	
2.178000	-519	713	293	283	
2.178500	-435	652	270	140	
2.179000	-274	556	255	13	
2.179500	-110	499	212	-54	
2.180000	30	523	159	-70	
2.180500	116	600	91	-56	
2.181000	165	705	19	-31	
2.181500	130	782	-56	10	
2.182000	48	821	-156	44	
2.182500	-82	832	-242	70	
2.183000	-149	831	-307	122	
2.183500	-94	827	-323	198	
2.184000	-126	820	-300	366	
2.184500	-247	799	-219	441	
2.185000	-415	764	-117	374	
2.185500	-508	719	27	189	
2.186000	-479	602	147	-2	
2.186500	-389	472	227	-186	
2.187000	-299	326	201	-358	
2.187500	-275	153	117	-543	
2.188000	-283	-35	-27	-696	
2.188500	-290	-339	-147	-788	
2.189000	-279	-572	-229	-813	
2.189500	-250	-643	-277	-763	
2.190000	-156	-525	-296	-651	
2.190500	-35	-310	-289	-408	
2.191000	122	-90	-278	-159	
2.191500	253	40	-269	62	
2.192000	334	65	-231	283	
2.192500	340	84	-166	542	
2.193000	292	130	-20	721	
2.193500	187	253	142	810	
2.194000	52	373	297	838	
2.194500	-71	469	388	759	
2.195000	-129	474	423	570	
2.195500	-138	411	411	380	
2.196000	-120	326	372	247	
2.196500	-123	261	321	164	
2.197000	-149	215	244	105	
2.197500	-201	177	178	47	
2.198000	-241	140	130	-12	
2.198500	-254	110	110	-60	
2.199000	-206	90	107	-107	
2.199500	-125	71	78	-144	
2.200000	-18	34	36	-173	
2.200500	59	-15	-24	-144	
2.201000	96	-81	-53	-86	
2.201500	104	-137	-48	-4	
2.202000	98	-179	-36	89	
2.202500	84	-209	-32	194	
2.203000	64	-239	-48	274	
2.203500	32	-385	-69	317	
2.204000	4	-545	-89	315	
2.204500	-13	-684	-125	288	
2.205000	-9	-731	-159	250	
2.205500	11	-705	-187	185	
2.206000	51	-601	-169	118	
2.206500	83	-488	-110	41	
2.207000	98	-370	-9	-32	
2.207500	69	-271	82	-102	
2.208000	28	-194	149	-127	
2.208500	-14	-152	180	-115	
2.209000	-20	-147	189	-64	
2.209500	-1	-186	182	-17	
2.210000	18	-254	167	16	
2.210500	16	-331	136	40	
2.211000	-23	-418	101	52	
2.211500	-64	-505	69	42	
2.212000	-92	-627	23	19	
2.212500	-89	-728	-13	-13	
2.213000	-75	-791	-29	-50	
2.213500	-61	-699	-24	-71	
2.214000	-14	-538	-8	-48	
2.214500	56	-318	-2	-22	
2.215000	167	-125	-2	-7	
2.215500	268	18	-7	9	
2.216000	355	95	-17	27	
2.216500	401	108	-33	52	
2.217000	410	53	-72	52	
2.217500	355	7	-114	20	
2.218000	274	-6	-145	73	
2.218500	168	76	-138	152	
2.219000	70	186	-101	177	
2.219500	-4	311	-37	133	
2.220000	-71	280	20	35	
2.220500	-86	114	69	-34	
2.221000	-26	-295	118	-63	
2.221500	86	-652	170	-72	
2.222000	198	-836	206	-73	
2.222500	254	-865	214	-75	
2.223000	214	-810	187	-71	
2.223500	42	-588	127	-63	
2.224000	-176	-330	47	-44	
2.224500	-354	-34	-40	-32	
2.225000	-325	214	-104	-33	
2.225500	-169	393	-142	-26	
2.226000	94	360	-158	-17	
2.226500	297	234	-161	-17	
2.227000	412	72	-161	-28	
2.227500	457	26	-152	-49	
2.228000	437	85	-111	-71	
2.228500	345	169	-48	-89	
2.229000	211	195	24	-108	
2.229500	67	102	59	-117	
2.230000	-175	-103	56	-115	
2.230500	-421	-340	15	-156	
2.231000	-677	-475	-16	-207	
2.231500	-765	-477	-24	-248	
2.232000	-723	-329	16	-270	
2.232500	-560	-151	64	-285	
2.233000	-352	1	97	-312	
2.233500	-70	56	101	-339	
2.234000	173	76	80	-359	
2.234500	339	143	52	-374	
2.235000	406	327	30	-389	
2.235500	382	580	20	-443	
2.236000	269	753	7	-493	
2.236500	107	826	-14	-484	
2.237000	-42	829	-44	-399	
2.237500	-98	668	-68	-243	
2.238000	-77	407	-84	-119	
2.238500	6	191	-97	-30	
2.239000	85	90	-108	100	
2.239500	137	109	-74	270	
2.240000	135	195	-13	485	
2.240500	98	295	90	649	
2.241000	31	344	174	715	
2.241500	-83	351	225	619	
2.242000	-204	333	190	472	
2.242500	-316	357	116	319	
2.243000	-368	419	10	254	
2.243500	-349	486	-62	247	
2.244000	-306	535	-97	251	
2.244500	-268	574	-140	223	
2.245000	-244	571	-188	150	
2.245500	-230	538	-255	36	
2.246000	-212	468	-282	-74	
2.246500	-183	398	-265	-201	
2.247000	-152	329	-225	-303	
2.247500	-163	253	-196	-383	
2.248000	-179	179	-197	-397	
2.248500	-176	116	-221	-361	
2.249000	-181	81	-251	-255	
2.249500	-196	73	-252	-139	
2.250000	-236	80	-221	-29	
2.250500	-244	95	-134	110	
2.251000	-189	118	-27	238	
2.251500	-122	144	76	375	
2.252000	-73	184	127	462	
2.252500	-79	204	144	503	
2.253000	-104	203	156	456	
2.253500	-132	177	216	374	
2.254000	-150	143	320	265	
2.254500	-157	98	358	143	
2.255000	-139	3	318	4	
2.255500	-105	-127	151	-147	
2.256000	-58	-278	-28	-279	
2.256500	-23	-371	-176	-423	
2.257000	-4	-372	-274	-544	
2.257500	-4	-305	-329	-648	
2.258000	-20	-228	-367	-604	
2.258500	-57	-324	-343	-473	
2.259000	-62	-491	-270	-236	
2.259500	-36	-690	-113	-35	
2.260000	65	-828	34	106	
2.260500	148	-904	142	134	
2.261000	173	-926	189	117	
2.261500	217	-898	192	126	
2.262000	277	-797	129	170	
2.262500	317	-705	51	238	
2.263000	320	-647	-42	305	
2.263500	281	-611	-114	332	
2.264000	171	-595	-162	255	
2.264500	35	-595	-141	145	
2.265000	-71	-638	-78	31	
2.265500	-99	-708	33	-56	
2.266000	-34	-766	143	-124	
2.266500	156	-777	236	-249	
2.267000	387	-713	284	-351	
2.267500	620	-503	284	-411	
2.268000	765	-208	221	-342	
2.268500	822	100	144	-222	
2.269000	677	302	76	-77	
2.269500	434	389	53	37	
2.270000	196	431	72	119	
2.270500	-16	464	147	167	
2.271000	-278	520	182	177	
2.271500	-523	560	166	128	
2.272000	-697	566	112	59	
2.272500	-649	564	70	-16	
2.273000	-499	566	78	-126	
2.273500	-292	543	103	-222	
2.274000	-204	504	124	-268	
2.274500	-224	439	117	-229	
2.275000	-333	421	88	-114	
2.275500	-415	450	27	-42	
2.276000	-415	474	-22	-21	
2.276500	-354	468	-50	-36	
2.277000	-278	410	-33	-20	
2.277500	-211	316	-7	44	
2.278000	-158	214	-4	69	
2.278500	-94	115	0	75	
2.279000	-44	30	12	115	
2.279500	-15	-74	43	162	
2.280000	-20	-146	64	204	
2.280500	-36	-178	55	210	
2.281000	-46	-158	9	195	
2.281500	-44	-130	-57	171	
2.282000	-32	-125	-149	124	
2.282500	23	-187	-235	53	
2.283000	112	-290	-333	-39	
2.283500	258	-374	-384	-133	
2.284000	348	-388	-389	-275	
2.284500	374	-284	-359	-352	
2.285000	305	-107	-332	-343	
2.285500	198	74	-336	-192	
2.286000	58	70	-319	-21	
2.286500	-94	5	-270	98	
2.287000	-219	-14	-144	157	
2.287500	-238	-2	-15	181	
2.288000	-205	14	90	210	
2.288500	-159	-55	138	240	
2.289000	-126	-116	144	260	
2.289500	-108	-97	142	274	
2.290000	-86	18	145	285	
2.290500	-60	155	166	245	
2.291000	-23	18	175	180	
2.291500	-19	-216	166	89	
2.292000	-41	-459	109	21	
2.292500	-84	-569	53	-20	
2.293000	-119	-559	24	25	
2.293500	-137	-393	37	98	
2.294000	-129	-214	79	164	
2.294500	-105	-68	133	225	
2.295000	-37	36	174	297	
2.295500	30	114	194	314	
2.296000	85	203	192	287	
2.296500	104	313	176	212	
2.297000	96	502	125	139	
2.297500	59	668	69	81	
2.298000	42	781	7	71	
2.298500	69	829	-25	84	
2.299000	148	803	-31	105	
2.299500	242	672	-10	110	
2.300000	360	372	15	100	
2.300500	443	-14	36	69	
2.301000	476	-472	37	32	
2.301500	424	-776	22	-22	
2.302000	328	-860	-20	-72	
2.302500	178	-757	-64	-119	
2.303000	53	-568	-109	-170	
2.303500	-37	-370	-128	-219	
2.304000	-72	-206	-127	-301	
2.304500	-80	-17	-129	-358	
2.305000	-141	149	-127	-378	
2.305500	-207	277	-103	-357	
2.306000	-258	320	-49	-325	
2.306500	-320	307	22	-303	
2.307000	-383	251	81	-297	
2.307500	-438	196	109	-301	
2.308000	-429	157	94	-260	
2.308500	-319	144	62	-178	
2.309000	-154	146	31	8	
2.309500	-2	156	45	225	
2.310000	56	175	82	448	
2.310500	41	194	131	485	
2.311000	-23	175	151	414	
2.311500	-88	140	140	302	
2.312000	-135	98	98	207	
2.312500	-148	13	63	134	
2.313000	-136	-98	55	53	
2.313500	-98	-214	71	-7	
2.314000	-12	-295	102	-20	
2.314500	95	-349	97	-2	
2.315000	234	-400	66	32	
2.315500	348	-447	-3	55	
2.316000	440	-436	-64	59	
2.316500	476	-371	-107	30	
2.317000	468	-229	-135	-6	
2.317500	362	-85	-127	-38	
2.318000	276	18	-45	-58	
2.318500	268	-48	76	-75	
2.319000	270	-180	204	-120	
2.319500	254	-330	259	-161	
2.320000	126	-389	248	-185	
2.320500	-30	-361	176	-132	
2.321000	-195	-196	104	-55	
2.321500	-440	28	52	13	
2.322000	-685	350	48	57	
2.322500	-794	604	71	84	
2.323000	-761	761	121	74	
2.323500	-588	805	126	38	
2.324000	-397	788	80	-52	
2.324500	-250	734	-36	-132	
2.325000	-148	658	-146	-187	
2.325500	-93	573	-218	-201	
2.326000	-64	432	-234	-188	
2.326500	-81	203	-213	-135	
2.327000	-120	-256	-156	-97	
2.327500	-130	-637	-104	-82	
2.328000	-102	-864	-72	-105	
2.328500	-28	-945	-67	-135	
2.329000	44	-940	-77	-150	
2.329500	94	-891	-110	-177	
2.330000	104	-711	-152	-228	
2.330500	106	-455	-217	-331	
2.331000	123	-199	-279	-431	
2.331500	185	12	-333	-509	
2.332000	265	240	-407	-541	
2.332500	342	474	-471	-532	
2.333000	376	692	-525	-435	
2.333500	357	808	-543	-292	
2.334000	261	843	-530	-51	
2.334500	138	843	-470	237	
2.335000	2	788	-364	560	
2.335500	-119	696	-138	758	
2.336000	-253	498	147	824	
2.336500	-324	288	441	769	
2.337000	-333	61	585	648	
2.337500	-259	-268	585	489	
2.338000	-183	-634	440	302	
2.338500	-140	-853	276	129	
2.339000	-101	-865	142	-90	
2.339500	-60	-633	30	-281	
2.340000	21	-360	-45	-445	
2.340500	95	-153	-95	-588	
2.341000	154	-189	-106	-690	
2.341500	204	-322	-88	-764	
2.342000	247	-463	-48	-768	
2.342500	291	-486	-9	-709	
2.343000	321	-423	25	-535	
2.343500	330	-486	44	-301	
2.344000	333	-597	51	126	
2.344500	333	-714	47	487	
2.345000	305	-703	60	732	
2.345500	260	-594	136	836	
2.346000	195	-429	209	832	
2.346500	50	-289	259	702	
2.347000	-125	-175	286	546	
2.347500	-280	-47	296	401	
2.348000	-364	97	292	254	
2.348500	-380	353	256	136	
2.349000	-413	580	194	21	
2.349500	-456	746	85	-73	
2.350000	-420	821	-9	-159	
2.350500	-328	839	-76	-254	
2.351000	-184	836	-133	-343	
2.351500	-103	831	-189	-459	
2.352000	-89	829	-237	-560	
2.352500	-129	829	-269	-644	
2.353000	-184	827	-294	-715	
2.353500	-242	791	-314	-747	
2.354000	-293	737	-327	-696	
2.354500	-327	658	-269	-528	
2.355000	-321	538	-170	-253	
2.355500	-287	401	-7	189	
2.356000	-227	265	142	576	
2.356500	-162	177	259	784	
2.357000	-111	133	363	827	
2.357500	-108	135	409	771	
2.358000	-114	158	345	617	
2.358500	-102	162	218	455	
2.359000	-33	150	73	282	
2.359500	59	125	-27	141	
2.360000	144	72	-68	26	
2.360500	190	0	-54	-10	
2.361000	195	-137	4	1	
2.361500	176	-282	82	24	
2.362000	155	-446	152	31	
2.362500	157	-630	188	17	
2.363000	160	-806	177	-11	
2.363500	142	-900	117	-42	
2.364000	142	-929	30	-95	
2.364500	169	-928	-71	-138	
2.365000	283	-919	-150	-165	
2.365500	436	-912	-202	-188	
2.366000	635	-901	-230	-216	
2.366500	764	-887	-245	-286	
2.367000	817	-867	-243	-372	
2.367500	830	-845	-224	-467	
2.368000	825	-828	-169	-619	
2.368500	820	-810	-67	-749	
2.369000	709	-778	57	-807	
2.369500	542	-705	177	-815	
2.370000	339	-430	249	-798	
2.370500	195	-33	259	-690	
2.371000	115	409	224	-520	
2.371500	44	706	168	-193	
2.372000	-43	833	99	129	
2.372500	-287	858	47	412	
2.373000	-522	847	10	635	
2.373500	-702	833	-39	772	
2.374000	-664	825	-106	827	
2.374500	-497	823	-167	836	
2.375000	-308	825	-199	830	
2.375500	-213	828	-192	733	
2.376000	-240	830	-164	604	
2.376500	-421	828	-130	444	
2.377000	-643	818	-102	334	
2.377500	-779	781	-76	278	
2.378000	-813	719	-28	250	
2.378500	-769	537	43	236	
2.379000	-671	341	127	227	
2.379500	-560	148	195	229	
2.380000	-412	-80	237	241	
2.380500	-299	-313	267	222	
2.381000	-233	-488	277	188	
2.381500	-210	-561	270	142	
2.382000	-207	-532	244	105	
2.382500	-192	-505	213	77	
2.383000	-171	-503	172	69	
2.383500	-144	-506	128	72	
2.384000	-138	-467	83	75	
2.384500	-147	-322	44	47	
2.385000	-169	-108	13	-18	
2.385500	-172	110	-24	-118	
2.386000	-137	262	-53	-211	
2.386500	-17	344	-75	-304	
2.387000	138	400	-106	-368	
2.387500	324	415	-136	-402	
2.388000	439	401	-167	-346	
2.388500	458	345	-193	-255	
2.389000	374	291	-216	-138	
2.389500	251	251	-250	-34	
2.390000	113	244	-280	57	
2.390500	-27	257	-302	170	
2.391000	-206	261	-277	250	
2.391500	-362	243	-214	237	
2.392000	-454	180	-92	148	
2.392500	-370	81	16	8	
2.393000	-221	-25	93	-139	
2.393500	-52	-83	106	-258	
2.394000	66	-90	70	-395	
2.394500	127	-47	-10	-476	
2.395000	151	-51	-89	-496	
2.395500	159	-105	-160	-436	
2.396000	163	-174	-188	-366	
2.396500	119	-202	-180	-348	
2.397000	42	-157	-158	-365	
2.397500	-104	-125	-136	-398	
2.398000	-199	-144	-112	-430	
2.398500	-199	-406	-89	-412	
2.399000	-135	-670	-67	-223	
2.399500	-63	-823	-43	53	
2.400000	-25	-828	-1	372	
2.400500	-8	-755	94	540	
2.401000	14	-710	198	544	
2.401500	107	-716	286	338	
2.402000	233	-781	301	89	
2.402500	365	-836	278	-144	
2.403000	434	-865	239	-306	
2.403500	420	-861	212	-391	
2.404000	319	-838	202	-424	
2.404500	187	-794	187	-428	
2.405000	25	-691	160	-422	
2.405500	-101	-547	105	-367	
2.406000	-194	-315	36	-290	
2.406500	-143	-69	-37	-167	
2.407000	-8	234	-99	6	
2.407500	170	503	-117	234	
2.408000	293	703	-50	456	
2.408500	344	804	54	586	
2.409000	280	836	155	557	
2.409500	161	842	228	432	
2.410000	-7	837	250	261	
2.410500	-157	834	201	151	
2.411000	-291	812	126	111	
2.411500	-356	705	53	137	
2.412000	-363	408	-13	182	
2.412500	-286	175	-60	226	
2.413000	-192	48	-106	247	
2.413500	-100	-72	-146	227	
2.414000	-24	-197	-181	110	
2.414500	31	-379	-218	-48	
2.415000	78	-594	-241	-224	
2.415500	120	-796	-235	-336	
2.416000	172	-893	-211	-370	
2.416500	222	-909	-182	-307	
2.417000	260	-883	-168	-246	
2.417500	290	-697	-170	-219	
2.418000	293	-415	-186	-185	
2.418500	258	-117	-216	-139	
2.419000	213	51	-251	-43	
2.419500	184	49	-247	112	
2.420000	232	45	-191	321	
2.420500	318	98	-29	549	
2.421000	431	376	121	694	
2.421500	462	642	225	673	
2.422000	407	793	203	517	
2.422500	143	845	136	281	
2.423000	-120	849	66	38	
2.423500	-316	838	30	-127	
2.424000	-401	830	24	-173	
2.424500	-415	827	45	-154	
2.425000	-405	756	62	-115	
2.425500	-423	637	52	-83	
2.426000	-501	482	27	-43	
2.426500	-462	357	-1	80	
2.427000	-328	265	41	173	
2.427500	-59	79	110	202	
2.428000	207	-172	194	61	
2.428500	461	-530	238	-148	
2.429000	632	-755	242	-429	
2.429500	711	-730	182	-651	
2.430000	623	-611	82	-805	
2.430500	471	-498	-91	-858	
2.431000	291	-454	-259	-855	
2.431500	109	-435	-393	-831	
2.432000	-43	-387	-415	-809	
2.432500	-166	-298	-365	-790	
2.433000	-250	-188	-243	-713	
2.433500	-319	-39	-132	-567	
2.434000	-443	87	-53	-191	
2.434500	-574	196	-7	216	
2.435000	-606	235	26	593	
2.435500	-549	222	87	790	
2.436000	-411	198	180	850	
2.436500	-300	199	287	850	
2.437000	-240	247	358	834	
2.437500	-200	301	375	818	
2.438000	-184	346	321	718	
2.438500	-187	418	233	595	
2.439000	-217	470	137	463	
2.439500	-257	486	46	366	
2.440000	-318	395	-12	300	
2.440500	-370	237	-31	226	
2.441000	-411	8	-31	154	
2.441500	-399	-157	-28	63	
2.442000	-349	-215	-42	-23	
2.442500	-210	-356	-56	-103	
2.443000	-72	-575	-55	-196	
2.443500	46	-771	-66	-278	
2.444000	124	-842	-92	-357	
2.444500	170	-740	-152	-402	
2.445000	198	-519	-207	-414	
2.445500	221	-268	-242	-299	
2.446000	251	-20	-229	-142	
2.446500	261	154	-183	40	
2.447000	257	271	-98	162	
2.447500	243	361	-9	225	
2.448000	215	437	104	275	
2.448500	163	500	186	310	
2.449000	37	529	231	324	
2.449500	-106	520	240	299	
2.450000	-208	482	233	239	
2.450500	-240	439	226	158	
2.451000	-208	444	213	93	
2.451500	-171	444	193	56	
2.452000	-139	384	168	46	
2.452500	-43	252	145	52	
2.453000	62	88	117	49	
2.453500	162	-59	74	34	
2.454000	225	-168	19	-4	
2.454500	248	-276	-56	-54	
2.455000	183	-400	-126	-110	
2.455500	71	-523	-188	-173	
2.456000	-82	-600	-246	-233	
2.456500	-173	-647	-297	-322	
2.457000	-201	-702	-326	-421	
2.457500	-178	-744	-321	-525	
2.458000	-167	-761	-264	-528	
2.458500	-202	-714	-176	-462	
2.459000	-193	-652	-83	-318	
2.459500	-137	-590	15	-163	
2.460000	24	-637	79	-11	
2.460500	151	-752	101	114	
2.461000	196	-816	90	185	
2.461500	216	-831	67	188	
2.462000	235	-818	71	140	
2.462500	268	-799	107	63	
2.463000	278	-782	202	38	
2.463500	245	-766	311	66	
2.464000	199	-754	412	177	
2.464500	162	-742	459	296	
2.465000	153	-691	444	402	
2.465500	156	-605	345	391	
2.466000	158	-372	237	321	
2.466500	185	-179	149	224	
2.467000	222	-115	77	158	
2.467500	259	-107	18	120	
2.468000	270	-84	-59	-4	
2.468500	251	221	-123	-147	
2.469000	284	540	-171	-287	
2.469500	348	751	-229	-386	
2.470000	400	837	-289	-453	
2.470500	397	853	-371	-498	
2.471000	327	846	-410	-519	
2.471500	170	837	-403	-510	
2.472000	-12	832	-347	-476	
2.472500	-255	830	-288	-422	
2.473000	-480	829	-236	-232	
2.473500	-703	827	-200	-5	
2.474000	-749	824	-177	260	
2.474500	-670	824	-140	415	
2.475000	-542	828	-90	452	
2.475500	-442	825	-4	356	
2.476000	-383	715	76	237	
2.476500	-340	564	139	154	
2.477000	-308	374	175	123	
2.477500	-279	203	201	127	
2.478000	-253	63	248	133	
2.478500	-222	-121	300	127	
2.479000	-158	-305	345	91	
2.479500	-84	-522	307	38	
2.480000	-33	-574	229	-21	
2.480500	-21	-490	123	-3	
2.481000	-46	-269	36	40	
2.481500	-45	-76	-26	51	
2.482000	-23	44	-93	20	
2.482500	-11	88	-157	-42	
2.483000	1	95	-235	-104	
2.483500	27	138	-289	-135	
2.484000	78	162	-313	-108	
2.484500	129	118	-281	-39	
2.485000	131	-62	-229	52	
2.485500	92	-304	-171	170	
2.486000	21	-457	-124	261	
2.486500	-63	-485	-86	298	
2.487000	-140	-388	-45	252	
2.487500	-235	-275	-1	135	
2.488000	-296	-189	56	-46	
2.488500	-306	-113	96	-205	
2.489000	-243	-45	112	-321	
2.489500	-142	47	103	-396	
2.490000	33	164	79	-448	
2.490500	174	283	36	-469	
2.491000	249	405	-11	-465	
2.491500	216	487	-56	-431	
2.492000	136	529	-91	-373	
2.492500	71	504	-110	-299	
2.493000	32	436	-110	-152	
2.493500	5	324	-89	-3	
2.494000	-35	211	-56	146	
2.494500	-72	79	14	312	
2.495000	-49	-17	86	509	
2.495500	-4	-75	161	618	
2.496000	44	-123	178	623	
2.496500	65	-187	145	487	
2.497000	66	-306	101	342	
2.497500	68	-435	66	235	
2.498000	80	-538	30	217	
2.498500	106	-556	-10	228	
2.499000	133	-504	-53	185	
2.499500	146	-377	-111	74	
2.500000	91	-284	-156	-90	
2.500500	31	-259	-176	-265	
2.501000	-7	-443	-176	-388	
2.501500	8	-638	-170	-455	
2.502000	46	-754	-180	-495	
2.502500	62	-788	-186	-535	
2.503000	57	-772	-163	-542	
2.503500	37	-699	-100	-516	
2.504000	7	-607	-16	-420	
2.504500	-22	-489	53	-370	
2.505000	-50	-366	75	-386	
2.505500	-60	-251	31	-348	
2.506000	-45	-64	-7	-252	
2.506500	2	113	-19	-27	
2.507000	53	283	12	110	
2.507500	77	373	58	119	
2.508000	60	402	105	23	
2.508500	-4	426	139	-97	
2.509000	-71	435	159	-236	
2.509500	-116	417	170	-326	
2.510000	-109	380	176	-363	
2.510500	-93	342	184	-249	
2.511000	-88	364	189	-102	
2.511500	-118	413	189	13	
2.512000	-158	475	174	16	
2.512500	-175	513	145	-74	
2.513000	-147	518	81	-133	
2.513500	-63	437	17	-128	
2.514000	56	323	-37	-5	
2.514500	169	178	-66	105	
2.515000	258	73	-85	165	
2.515500	311	7	-120	150	
2.516000	340	-117	-164	111	
2.516500	391	-257	-208	74	
2.517000	439	-427	-246	141	
